,Stroke (mm)
0,6.6666659999999995e-06
1,6.6666659999999995e-06
2,6.6666659999999995e-06
3,1.3333331999999999e-05
4,3.9999998000000004e-05
5,7.3333336e-05
6,0.00011333332000000002
7,0.00017333332
8,0.00029333334
9,0.00043999999999999996
10,0.0006066666800000001
11,0.00077333342
12,0.00094000002
13,0.0010866666200000001
14,0.0012399998
15,0.0013666665999999999
16,0.00148
17,0.0016000002
18,0.0017066668
19,0.0018133333999999998
20,0.0019133332
21,0.0020266666
22,0.0021266668
23,0.0022333334000000002
24,0.0023399999999999996
25,0.0024533332000000003
26,0.0025533332
27,0.0026466666
28,0.0027333332
29,0.0028266666000000005
30,0.0029333332
31,0.00304
32,0.0031333332
33,0.00324
34,0.0033333334
35,0.0034333334
36,0.0035333334
37,0.00364
38,0.0037199999999999998
39,0.0038199999999999996
40,0.0039266666
41,0.00402
42,0.0041266668
43,0.0042200002
44,0.004320000200000001
45,0.0044400002000000004
46,0.0045333336
47,0.0046333336
48,0.004739999999999999
49,0.004833333599999999
50,0.004926667
51,0.005020000200000001
52,0.0051200004
53,0.005233333599999999
54,0.0053266668
55,0.0054400002000000005
56,0.00554
57,0.0056466668
58,0.0057466667999999995
59,0.00584
60,0.0059333334
61,0.006033333399999999
62,0.0061333332
63,0.0062400004
64,0.00634
65,0.0064466666
66,0.006546666999999999
67,0.006633333199999999
68,0.0067266666
69,0.0068333336
70,0.00694
71,0.007046666599999999
72,0.0071400000000000005
73,0.0072466666
74,0.007346667000000001
75,0.0074400002
76,0.00754
77,0.0076466672
78,0.007746666599999999
79,0.007840000599999999
80,0.0079466672
81,0.008053333
82,0.0081466668
83,0.0082466668
84,0.0083466672
85,0.0084400004
86,0.0085466662
87,0.0086466666
88,0.008746666599999998
89,0.008846666999999999
90,0.008940000600000001
91,0.009033333800000001
92,0.009133333
93,0.009246666599999998
94,0.00934
95,0.009440000399999999
96,0.0095466672
97,0.0096599996
98,0.0097466666
99,0.009846666600000002
100,0.0099466672
101,0.01004
102,0.01014
103,0.010239999999999999
104,0.010346666000000001
105,0.010453334
106,0.01054
107,0.010646665999999999
108,0.010746665999999998
109,0.01084
110,0.010926665999999998
111,0.011019998
112,0.011126665999999999
113,0.011239998
114,0.011339998
115,0.011439999999999999
116,0.01154
117,0.011640000000000001
118,0.011733334000000002
119,0.011839999999999998
120,0.011946666
121,0.012046666000000001
122,0.012146665999999999
123,0.012246666
124,0.012353332
125,0.012446665999999999
126,0.012546666000000001
127,0.012640000000000002
128,0.012740000000000001
129,0.01284
130,0.012939998
131,0.013039997999999997
132,0.013146668
133,0.013253334
134,0.013333333999999999
135,0.013446666000000001
136,0.013546663999999996
137,0.013653332
138,0.013746666
139,0.01384
140,0.01394
141,0.014046666
142,0.01416
143,0.014253332000000002
144,0.014360000000000001
145,0.014453334000000002
146,0.014539997999999998
147,0.014639997999999998
148,0.014760002
149,0.014853334000000001
150,0.014960000000000001
151,0.015046666
152,0.01514
153,0.015253332
154,0.015346666
155,0.015439998000000002
156,0.015546666
157,0.015639998
158,0.015746666
159,0.015853332
160,0.01596
161,0.01606
162,0.016153332
163,0.016246666
164,0.016353331999999998
165,0.016453331999999998
166,0.016546664
167,0.016646666
168,0.016746666
169,0.016853334
170,0.016946666
171,0.017046666
172,0.017153332
173,0.01726
174,0.017366668000000002
175,0.017466668
176,0.017546667999999998
177,0.017646666
178,0.017746666
179,0.01784
180,0.017933332
181,0.018046666
182,0.01816
183,0.018266667999999996
184,0.018359999999999998
185,0.018459999999999997
186,0.018546663999999997
187,0.018653332
188,0.018753332
189,0.01886
190,0.01896
191,0.019060002000000003
192,0.019160002000000002
193,0.019266668
194,0.01936
195,0.019453332
196,0.019553332
197,0.019653332000000003
198,0.019766668
199,0.019866668
200,0.01996
201,0.020053334
202,0.020139998000000003
203,0.020246666
204,0.020346666
205,0.020439999999999996
206,0.020553334
207,0.020646666
208,0.020753332000000003
209,0.020846663999999997
210,0.020946664
211,0.021046664
212,0.021153332000000004
213,0.021253332
214,0.021353332
215,0.021453332
216,0.021553332
217,0.021653334000000003
218,0.021753334
219,0.02186667
220,0.021953333999999998
221,0.022046666
222,0.022146666
223,0.022246666
224,0.022339998
225,0.022446666
226,0.022539998000000002
227,0.022646664000000004
228,0.022746663999999996
229,0.022839998
230,0.022946665999999998
231,0.023046668
232,0.02314
233,0.023246666
234,0.023346666
235,0.023460001999999997
236,0.023546666
237,0.023646664
238,0.023753332
239,0.023853331999999998
240,0.023953334
241,0.024053334
242,0.024146666
243,0.02424
244,0.024339998
245,0.024439997999999998
246,0.024533332
247,0.024653334
248,0.02474
249,0.024846668000000002
250,0.024946666
251,0.025046665999999995
252,0.025139999999999996
253,0.025240000000000002
254,0.025339998000000002
255,0.025446666
256,0.025546666000000003
257,0.025646666000000002
258,0.025746665999999994
259,0.025839998000000003
260,0.025933332000000003
261,0.026046665999999996
262,0.026159997999999997
263,0.026253332
264,0.026346664
265,0.026439998000000003
266,0.026539998
267,0.026639997999999998
268,0.026733332
269,0.026839997999999997
270,0.026939998000000003
271,0.027046665999999997
272,0.027146666000000003
273,0.027253332
274,0.027353334
275,0.027453333999999996
276,0.027546665999999997
277,0.027646665999999997
278,0.027759999999999996
279,0.027853331999999998
280,0.027953330000000005
281,0.028046664
282,0.028146666000000004
283,0.028246663999999998
284,0.028346664
285,0.028439998000000005
286,0.028539998
287,0.028646664
288,0.028746663999999998
289,0.028853332
290,0.028946664000000004
291,0.029039998
292,0.02914
293,0.02924
294,0.029346664
295,0.029439998000000002
296,0.029533332000000002
297,0.029646666
298,0.029746665999999998
299,0.029853332
300,0.029946664
301,0.030053332
302,0.030153331999999998
303,0.030266668000000004
304,0.030366667999999996
305,0.030466668000000002
306,0.030553332
307,0.030653332
308,0.030766670000000003
309,0.030866667999999996
310,0.030966667999999996
311,0.031059999999999997
312,0.031146664
313,0.031253334
314,0.031346666
315,0.031446668000000004
316,0.031553333999999995
317,0.031666667999999995
318,0.031759998
319,0.031853332
320,0.03194666400000001
321,0.032053338
322,0.03216
323,0.03226667
324,0.032366666
325,0.032473334000000006
326,0.03255999799999999
327,0.032653332
328,0.032753332
329,0.03284
330,0.032946666
331,0.033039998
332,0.033146672
333,0.033266668
334,0.033373335999999997
335,0.033479999999999996
336,0.033566665999999995
337,0.033673332
338,0.033766668
339,0.033866668
340,0.033953331999999996
341,0.034053332
342,0.034146666000000006
343,0.034246672
344,0.034353332
345,0.03444667
346,0.034553334
347,0.034646666
348,0.034746664000000003
349,0.034853332
350,0.034946666
351,0.035046666
352,0.035153334
353,0.03526
354,0.035346672
355,0.035453333999999996
356,0.035553338
357,0.035653331999999996
358,0.035753332000000006
359,0.03586
360,0.035946665999999995
361,0.036033332
362,0.036133332000000004
363,0.036239998
364,0.03635999999999999
365,0.036446672
366,0.036553334
367,0.036653338
368,0.03675333200000001
369,0.036853332
370,0.03695333199999999
371,0.037046664
372,0.037146663999999996
373,0.037246664000000006
374,0.037353332
375,0.03746
376,0.037560003999999994
377,0.037646666
378,0.037746672
379,0.037853333999999995
380,0.037939997999999996
381,0.038039998000000005
382,0.038133332
383,0.038233332
384,0.038353332
385,0.03846000000000001
386,0.03856
387,0.038660004000000005
388,0.03875333400000001
389,0.038840004
390,0.03894
391,0.039033332000000004
392,0.039146664
393,0.039233331999999996
394,0.039339998
395,0.039433332
396,0.039546664
397,0.039646664
398,0.039746672000000004
399,0.039853332
400,0.039946671999999996
401,0.040053332000000004
402,0.040146666
403,0.04024
404,0.040346664
405,0.040453331999999995
406,0.040553334
407,0.040639998
408,0.040739998
409,0.040833336000000005
410,0.040946663999999994
411,0.041046672
412,0.04115333400000001
413,0.041253333999999996
414,0.041353334
415,0.04146
416,0.041546664000000004
417,0.041653332
418,0.041746664
419,0.041846664
420,0.04195333799999999
421,0.042046666
422,0.042146671999999996
423,0.042253334
424,0.042346666
425,0.04244
426,0.042546666000000004
427,0.04264666599999999
428,0.042753332
429,0.04286
430,0.042946668
431,0.043053336
432,0.04316
433,0.043260004000000005
434,0.043353334
435,0.043453333999999996
436,0.043553334000000006
437,0.043653332
438,0.04375333
439,0.043859998
440,0.043946666
441,0.044046666000000005
442,0.04416667
443,0.044266667999999995
444,0.04436667
445,0.044466668
446,0.044566668000000004
447,0.044653332
448,0.044746664000000005
449,0.04486
450,0.044953332
451,0.045053338000000005
452,0.04515999999999999
453,0.045260004
454,0.04536
455,0.045460004
456,0.04555333199999999
457,0.045666666
458,0.045766666
459,0.045873334
460,0.04596
461,0.046066668000000005
462,0.04616667
463,0.046266668
464,0.046353338
465,0.046446666000000005
466,0.046553338
467,0.046646665999999996
468,0.04674666399999999
469,0.046846664
470,0.046946664
471,0.04706
472,0.047159999999999994
473,0.047246672
474,0.047346666
475,0.047460004
476,0.04756666799999999
477,0.047673334
478,0.04775999999999999
479,0.04786
480,0.047946664
481,0.04805333199999999
482,0.048146666
483,0.04823999999999999
484,0.04834667
485,0.048473336
486,0.048573336
487,0.048673334
488,0.048753333999999995
489,0.048853334000000005
490,0.04895999999999999
491,0.049059998
492,0.049146666
493,0.049253332
494,0.049346664000000005
495,0.049453338
496,0.049559998
497,0.049653338
498,0.049753332
499,0.04983333200000001
500,0.049939998
501,0.050039997999999995
502,0.050146663999999994
503,0.050246665999999995
504,0.05033999800000001
505,0.050453332
506,0.050560004000000006
507,0.050653331999999995
508,0.050753338
509,0.05085333200000001
510,0.050953332
511,0.05105333199999999
512,0.05114666599999999
513,0.051246665999999996
514,0.051339998
515,0.051446663999999996
516,0.051539998
517,0.051640006
518,0.051733332
519,0.051846671999999996
520,0.051946665999999996
521,0.052039999999999996
522,0.05215333400000001
523,0.052253334000000005
524,0.05236
525,0.05245999999999999
526,0.052566668000000004
527,0.05266
528,0.05276000399999999
529,0.052860000000000004
530,0.05296000199999999
531,0.053059999999999996
532,0.053146665999999995
533,0.053246666
534,0.053333332
535,0.053446666
536,0.053546666
537,0.05364666600000001
538,0.053746666
539,0.053840004
540,0.053946666
541,0.054060003999999995
542,0.054153332
543,0.054253332
544,0.054346666
545,0.054446666
546,0.054546666
547,0.05464666600000001
548,0.054739998
549,0.054839998
550,0.054953338
551,0.055046666
552,0.055146669999999995
553,0.055253334
554,0.055353334
555,0.055453334
556,0.055546666
557,0.05566
558,0.05576
559,0.05586666600000001
560,0.05596000000000001
561,0.056046672
562,0.056139998
563,0.056233336
564,0.056353332
565,0.056440000000000004
566,0.056546666
567,0.056653332
568,0.056753332000000004
569,0.056846664000000005
570,0.056953332
571,0.057053332
572,0.057153338
573,0.057253332000000004
574,0.057353338
575,0.05746
576,0.05756
577,0.057666666
578,0.057766664
579,0.057853332
580,0.057946664
581,0.05806
582,0.05815333199999999
583,0.058253338
584,0.05836
585,0.05846667
586,0.058566668
587,0.058666668
588,0.058773333999999997
589,0.058873332
590,0.05898
591,0.059073332
592,0.059173332
593,0.059273335999999996
594,0.059360004
595,0.059466668
596,0.059560004
597,0.05964666799999999
598,0.059753334000000005
599,0.05986666799999999
600,0.059966668
601,0.06006
602,0.06015333399999999
603,0.060260002
604,0.060353333999999995
605,0.060453336
606,0.060566668000000004
607,0.060660004000000003
608,0.06076
609,0.06086667
610,0.060953334000000005
611,0.06104666599999999
612,0.061160000000000006
613,0.06126
614,0.061346663999999995
615,0.06146
616,0.061560004
617,0.061666665999999995
618,0.061773336
619,0.06185999999999999
620,0.061966668
621,0.062060000000000004
622,0.062160002000000006
623,0.062260002
624,0.062353333999999996
625,0.062446666000000005
626,0.062539998
627,0.06264667199999999
628,0.06276
629,0.062880002
630,0.06298000200000001
631,0.063060002
632,0.06316000399999999
633,0.06325332800000001
634,0.063346666
635,0.063453332
636,0.06354667
637,0.06365333599999999
638,0.06376
639,0.06386
640,0.063960004
641,0.06406667
642,0.064166668
643,0.064273336
644,0.06436
645,0.064460004
646,0.064553328
647,0.06465333399999999
648,0.06476
649,0.06485333600000001
650,0.064953332
651,0.06505333199999999
652,0.06514666599999999
653,0.06525333200000001
654,0.06534667200000001
655,0.065459996
656,0.06555333199999999
657,0.065653334
658,0.06575333800000001
659,0.065846668
660,0.065953332
661,0.066046666
662,0.06615333799999999
663,0.06626000400000001
664,0.066346666
665,0.06644666600000002
666,0.06655333399999999
667,0.066640004
668,0.06674666200000001
669,0.066860002
670,0.066960002
671,0.06705333599999999
672,0.06714666799999999
673,0.06725333199999999
674,0.067353332
675,0.067453332
676,0.06755333799999999
677,0.06765333
678,0.067753332
679,0.067853332
680,0.06794667200000001
681,0.06804
682,0.068153332
683,0.068246666
684,0.06834667
685,0.068440006
686,0.068539998
687,0.068653332
688,0.06876
689,0.06885333800000001
690,0.06895333000000001
691,0.06906
692,0.06916
693,0.06924667200000001
694,0.069346672
695,0.069453332
696,0.069566668
697,0.06965333199999998
698,0.069740004
699,0.069859996
700,0.069953334
701,0.07006
702,0.070153338
703,0.070253336
704,0.07036
705,0.07046
706,0.07054667
707,0.070660002
708,0.07076
709,0.070866666
710,0.070946666
711,0.07106667
712,0.071166664
713,0.07126666799999999
714,0.07136
715,0.071460004
716,0.071553338
717,0.071666668
718,0.07176
719,0.071866668
720,0.071953336
721,0.07205333
722,0.072146666
723,0.07225333199999999
724,0.072353336
725,0.072466664
726,0.072560002
727,0.07266666599999999
728,0.072760004
729,0.072860004
730,0.07295333200000001
731,0.07306
732,0.07316
733,0.073260004
734,0.07335999600000001
735,0.07346
736,0.073566668
737,0.073653338
738,0.07374667199999999
739,0.073846666
740,0.073939998
741,0.07403999800000001
742,0.074153338
743,0.07427999599999999
744,0.074373332
745,0.074460002
746,0.074553338
747,0.074653336
748,0.07475333199999999
749,0.07486
750,0.07495333800000001
751,0.075060004
752,0.07515333199999999
753,0.07524666399999999
754,0.075366668
755,0.075460004
756,0.075553336
757,0.07565333199999999
758,0.07576
759,0.075853338
760,0.075960004
761,0.076046666
762,0.076139998
763,0.07624666599999999
764,0.07635333799999999
765,0.076446662
766,0.07654666600000001
767,0.07665333399999999
768,0.07676000399999999
769,0.076859996
770,0.076946666
771,0.07704666600000001
772,0.07716667
773,0.077260004
774,0.07735333200000001
775,0.077460002
776,0.077553334
777,0.07765333799999999
778,0.07775333599999999
779,0.077853332
780,0.077953332
781,0.078053338
782,0.07814667
783,0.07824666799999999
784,0.078353334
785,0.078453334
786,0.078553338
787,0.078646662
788,0.07874666599999999
789,0.07885333400000001
790,0.07894667200000001
791,0.079053336
792,0.07916
793,0.07926
794,0.07936000400000001
795,0.07944667200000001
796,0.079539996
797,0.07964
798,0.079739998
799,0.07983333799999999
800,0.07994667200000001
801,0.08003999800000001
802,0.080139998
803,0.08024667199999999
804,0.080353338
805,0.08046
806,0.08056
807,0.080666668
808,0.080753338
809,0.08084666399999998
810,0.080939998
811,0.081046666
812,0.081146672
813,0.08124667199999999
814,0.08134666399999999
815,0.081446666
816,0.081560004
817,0.08165333599999999
818,0.081759996
819,0.08186
820,0.081953334
821,0.08206000399999999
822,0.082153332
823,0.082246666
824,0.082353334
825,0.082460004
826,0.08256000200000001
827,0.082646668
828,0.08275333199999999
829,0.082866668
830,0.08296666999999999
831,0.083066662
832,0.083160002
833,0.083246666
834,0.08334667
835,0.08344666600000002
836,0.08355333200000001
837,0.08364666600000001
838,0.08375334
839,0.083860004
840,0.08395333
841,0.08405333200000001
842,0.08413999800000001
843,0.084246672
844,0.08434
845,0.08445333399999999
846,0.084559998
847,0.084673338
848,0.084773336
849,0.08486
850,0.08495999800000001
851,0.08504666600000002
852,0.08514667000000001
853,0.085239998
854,0.08534666599999999
855,0.08545999999999998
856,0.08556000600000001
857,0.085653336
858,0.08575333199999999
859,0.08585333199999999
860,0.08595333799999998
861,0.08606667
862,0.08615333
863,0.08625333199999999
864,0.08636666600000001
865,0.08645333799999999
866,0.086566664
867,0.086666668
868,0.08676666799999999
869,0.08688000200000001
870,0.08697333600000001
871,0.087066668
872,0.087153332
873,0.08725999999999999
874,0.08736667
875,0.087466662
876,0.087566668
877,0.087666668
878,0.087760004
879,0.08785333599999999
880,0.087966666
881,0.088080002
882,0.08818000200000001
883,0.088280002
884,0.08837333
885,0.08847333599999999
886,0.08856666599999999
887,0.088660004
888,0.08875333199999999
889,0.08886
890,0.08896000000000001
891,0.089060004
892,0.089160004
893,0.08926
894,0.089366666
895,0.08945999999999998
896,0.089560004
897,0.089653328
898,0.08975333399999999
899,0.08985333399999999
900,0.08996000400000001
901,0.090073336
902,0.09018000000000001
903,0.090266668
904,0.09036667
905,0.090446672
906,0.09053333
907,0.09064000000000001
908,0.09076
909,0.09085333599999999
910,0.090953332
911,0.091053334
912,0.091166668
913,0.09126000399999999
914,0.09135333799999999
915,0.091446666
916,0.091546666
917,0.091659998
918,0.09176667
919,0.091859996
920,0.09196
921,0.09204666400000001
922,0.09213333800000001
923,0.09226000399999999
924,0.09235333399999998
925,0.09245333199999999
926,0.09254667000000001
927,0.09264000400000001
928,0.09274666200000001
929,0.092853332
930,0.09294666599999998
931,0.09304667200000001
932,0.093146668
933,0.093246666
934,0.093353332
935,0.09345333800000002
936,0.09355333800000001
937,0.09363333200000001
938,0.093739998
939,0.093846664
940,0.09396000400000001
941,0.09404666600000001
942,0.094146668
943,0.09424
944,0.09434667199999999
945,0.09444667200000001
946,0.094553334
947,0.094646666
948,0.094746672
949,0.09484000399999999
950,0.094939998
951,0.09504666400000002
952,0.09513999800000002
953,0.095240004
954,0.09534000000000001
955,0.09545333199999999
956,0.095566666
957,0.09566667
958,0.095746672
959,0.095846664
960,0.095953332
961,0.09606
962,0.096160004
963,0.096253332
964,0.096346666
965,0.09644
966,0.09653333800000001
967,0.096640006
968,0.09673999800000001
969,0.09684
970,0.09695333799999999
971,0.09704667199999999
972,0.09714666200000001
973,0.097253332
974,0.097346666
975,0.097440004
976,0.097540004
977,0.09764666600000001
978,0.097759998
979,0.09786667
980,0.09795333799999999
981,0.09804000000000002
982,0.09815333200000001
983,0.09823999800000001
984,0.09834000600000001
985,0.09844667199999999
986,0.09854666399999998
987,0.098666668
988,0.09876667
989,0.09886667
990,0.09896
991,0.09906000000000001
992,0.099146672
993,0.09924667200000001
994,0.09935332999999999
995,0.09945333199999999
996,0.09954666599999999
997,0.099660004
998,0.09976
999,0.09985333199999999
1000,0.09995333199999999
1001,0.10006666
1002,0.10015999999999999
1003,0.10025334000000001
1004,0.10036002000000002
1005,0.10046668
1006,0.10056000000000001
1007,0.10066668000000001
1008,0.10076001999999999
1009,0.10086000000000002
1010,0.10095331999999999
1011,0.10105332
1012,0.10114665999999999
1013,0.10124666
1014,0.10135332000000001
1015,0.10146000000000002
1016,0.10156000000000001
1017,0.10166667999999998
1018,0.10176668
1019,0.10185334000000001
1020,0.10195334
1021,0.10205333999999999
1022,0.10215331999999999
1023,0.10225999999999999
1024,0.10236
1025,0.10246667999999999
1026,0.10256665999999999
1027,0.10267336
1028,0.10276668
1029,0.10287336
1030,0.10295334
1031,0.10305331999999998
1032,0.10315331999999999
1033,0.10325999999999999
1034,0.10337336000000001
1035,0.10346668
1036,0.10356668
1037,0.10366667999999998
1038,0.10376002
1039,0.10385334000000002
1040,0.10395334
1041,0.10405334
1042,0.10413998
1043,0.10424666
1044,0.10435334
1045,0.10445332
1046,0.10455334000000001
1047,0.10466001999999999
1048,0.10475334
