,Stroke (mm)
0,0.0
1,0.0
2,6.6666659999999995e-06
3,2.6666663999999998e-05
4,4.6666666e-05
5,7.3333336e-05
6,0.00010666666000000002
7,0.00017333334
8,0.00029333332
9,0.00044666667999999996
10,0.00061333334
11,0.0007866666600000001
12,0.0009333334799999999
13,0.00107333334
14,0.0011933332
15,0.0013266666
16,0.0014600000000000001
17,0.0015733334000000002
18,0.0016733333999999999
19,0.00178
20,0.0019133336000000001
21,0.0020200001999999997
22,0.0021333331999999995
23,0.0022400000000000002
24,0.0023533331999999996
25,0.0024466666000000003
26,0.0025333334
27,0.0026266666
28,0.0027266666
29,0.0028133332
30,0.0029133334
31,0.0030333334
32,0.0031266668000000004
33,0.0032199999999999998
34,0.0033266666
35,0.0034200000000000003
36,0.00352
37,0.0036333333999999996
38,0.0037266668000000003
39,0.0038266667999999997
40,0.0039133332
41,0.0040133332
42,0.0041066664
43,0.0042066664
44,0.004313333600000001
45,0.0044133334
46,0.004520000000000001
47,0.004640000199999999
48,0.004733333399999999
49,0.0048266666
50,0.0049266668
51,0.0050266666
52,0.0051200004
53,0.0052133332
54,0.0053133332
55,0.0054200004
56,0.0055333334
57,0.005633333400000001
58,0.0057266669999999995
59,0.0058200002
60,0.005926666799999999
61,0.006033333400000001
62,0.0061133332
63,0.006213333600000001
64,0.0063133334
65,0.0064133334
66,0.006520000199999999
67,0.00664
68,0.00674
69,0.0068333336
70,0.00694
71,0.0070333332
72,0.0071266666000000005
73,0.0072333332
74,0.007320000400000001
75,0.0074199998
76,0.0075266666
77,0.007640000400000001
78,0.0077333334
79,0.007833333800000002
80,0.007933333400000001
81,0.0080399996
82,0.008133333400000001
83,0.0082266666
84,0.0083333336
85,0.008433333800000001
86,0.008533333
87,0.008639999999999998
88,0.008740000000000001
89,0.0088333336
90,0.0089400004
91,0.009053333399999999
92,0.0091599996
93,0.009239999799999999
94,0.0093399998
95,0.009440000399999999
96,0.0095400004
97,0.009639999599999999
98,0.00974
99,0.00984
100,0.009946667000000001
101,0.010053334
102,0.010146668000000001
103,0.010233332000000001
104,0.010326666
105,0.010426666000000001
106,0.010526666
107,0.010626665999999998
108,0.010746668000000001
109,0.010839998
110,0.01094
111,0.011033334
112,0.01114
113,0.011233334000000001
114,0.011340000000000001
115,0.011433334
116,0.011533334000000001
117,0.011646666
118,0.011746664
119,0.011839999999999998
120,0.011946666
121,0.01204
122,0.012133331999999998
123,0.012246666
124,0.012346666
125,0.012446666
126,0.012553334
127,0.012653333999999999
128,0.012740002
129,0.012840002
130,0.012940000000000002
131,0.01304
132,0.013133332000000001
133,0.013233332
134,0.013333333999999999
135,0.013440000000000002
136,0.013546667999999998
137,0.013646668
138,0.013746668
139,0.013840002
140,0.013940001999999998
141,0.014033334
142,0.014133334000000001
143,0.014226666000000002
144,0.014333332
145,0.014446668
146,0.014553334000000001
147,0.014646668000000002
148,0.014733331999999998
149,0.014833332
150,0.014933334000000001
151,0.015026668000000002
152,0.015146668000000002
153,0.015239999999999998
154,0.015346667999999999
155,0.015453334000000003
156,0.015553333999999999
157,0.015653334
158,0.015746666
159,0.015846666
160,0.01594
161,0.016026666000000002
162,0.016139999999999998
163,0.016226666
164,0.016326666
165,0.016433332
166,0.016546665999999998
167,0.016646668000000003
168,0.01674
169,0.016846668
170,0.016946668
171,0.017033334
172,0.017146669999999996
173,0.017246668
174,0.017346668
175,0.017433332000000003
176,0.017533334
177,0.01764
178,0.017733333999999996
179,0.017833332
180,0.01794
181,0.01804
182,0.018146666
183,0.018246665999999998
184,0.018346665999999998
185,0.018446666
186,0.018553333999999998
187,0.018653334
188,0.018753334
189,0.018853334
190,0.018946668000000003
191,0.01904
192,0.019139999999999997
193,0.019233332
194,0.019353334
195,0.019439999999999995
196,0.019533332000000004
197,0.019633332
198,0.019733332
199,0.019833332000000002
200,0.019953334
201,0.020053332
202,0.020153332000000003
203,0.02026
204,0.02036
205,0.02046
206,0.020553334
207,0.020646664
208,0.020746666
209,0.020846666000000003
210,0.020946665999999996
211,0.021039999999999996
212,0.021146665999999998
213,0.021253332000000003
214,0.021353332000000003
215,0.021453332
216,0.021553331999999998
217,0.021653331999999997
218,0.021753334
219,0.021853334000000002
220,0.021939999999999998
221,0.022039999999999997
222,0.022146666
223,0.022246666
224,0.022353334
225,0.022459999999999997
226,0.02256
227,0.022646666
228,0.02274
229,0.02284
230,0.02294
231,0.023046666
232,0.023160002000000002
233,0.023253336000000003
234,0.023353336000000002
235,0.023439997999999997
236,0.023553334000000002
237,0.023646666
238,0.02376
239,0.023853334
240,0.023960001999999998
241,0.024046665999999998
242,0.024153334000000005
243,0.024253334
244,0.024353334
245,0.024453334
246,0.024553334
247,0.024626666
248,0.024746668000000003
249,0.024853333999999998
250,0.024953334
251,0.025053333999999993
252,0.02516
253,0.025259999999999998
254,0.02536
255,0.025466667999999998
256,0.025566667999999997
257,0.025653334
258,0.025746668
259,0.025846668
260,0.025946668
261,0.026046665999999996
262,0.026146665999999995
263,0.026246665999999995
264,0.026346668
265,0.026446668
266,0.026553333999999994
267,0.026646667999999995
268,0.026740002000000002
269,0.026840002
270,0.026946668
271,0.027039999999999998
272,0.027140001999999996
273,0.027240000000000004
274,0.027346666000000002
275,0.027446666
276,0.027559999999999994
277,0.027666668
278,0.027759999999999996
279,0.027846666000000003
280,0.027953334000000003
281,0.02804
282,0.028133334
283,0.028240002000000004
284,0.028346668000000002
285,0.028446668
286,0.028553333999999996
287,0.028646667999999997
288,0.028746668000000003
289,0.028859998000000005
290,0.028953332
291,0.029053333999999997
292,0.029153334000000003
293,0.029246665999999998
294,0.029346668000000003
295,0.029440002
296,0.029546667999999998
297,0.02964
298,0.02974
299,0.029846666000000004
300,0.029939998000000002
301,0.030033331999999996
302,0.030146666
303,0.030246666
304,0.030353332
305,0.030453334
306,0.030553333999999998
307,0.030646668
308,0.03074
309,0.030833332
310,0.030933332
311,0.031033331999999997
312,0.031133332000000003
313,0.031239998
314,0.031333332000000005
315,0.031433332
316,0.031546666
317,0.031646666000000004
318,0.03176
319,0.031873335999999995
320,0.031966668000000004
321,0.032046672
322,0.032133332
323,0.032233338
324,0.03234
325,0.032440000000000004
326,0.032553333999999996
327,0.032653334
328,0.032760001999999996
329,0.032846668
330,0.032953333999999994
331,0.033053334
332,0.033153338
333,0.033246666
334,0.033353337999999996
335,0.033446666
336,0.033553334
337,0.033653334
338,0.033760002
339,0.033846666000000004
340,0.033946668
341,0.034046667999999995
342,0.03416
343,0.03426667
344,0.034360002
345,0.03446667
346,0.034566668
347,0.03466667
348,0.034760002
349,0.034853334
350,0.034960002000000004
351,0.035053334
352,0.035160002
353,0.035253334000000004
354,0.035340006
355,0.035453333999999996
356,0.035546671999999994
357,0.03564666600000001
358,0.035746665999999996
359,0.035853331999999995
360,0.03596
361,0.036079999999999994
362,0.036180002
363,0.036266668
364,0.036353333999999994
365,0.036453338
366,0.036546666
367,0.036653338
368,0.03676
369,0.03686
370,0.036973334000000004
371,0.037059999999999996
372,0.037160000000000006
373,0.037246664
374,0.037353331999999996
375,0.037453334
376,0.037560003999999994
377,0.03765999999999999
378,0.037753338000000004
379,0.037846665999999994
380,0.037953334
381,0.038046666
382,0.038153334
383,0.038260002
384,0.038346665999999995
385,0.038446666000000004
386,0.038540000000000005
387,0.038653338
388,0.03876
389,0.038853338
390,0.038953332
391,0.039053332
392,0.039153334
393,0.03926
394,0.039366665999999995
395,0.03946
396,0.039553332000000004
397,0.039646664
398,0.039753338000000006
399,0.039846665999999996
400,0.039953338
401,0.040053334
402,0.040159999999999994
403,0.040253333999999995
404,0.040353334
405,0.040453334
406,0.04056
407,0.040659999999999995
408,0.040766668
409,0.040853338
410,0.040953331999999995
411,0.041040004000000005
412,0.041146668
413,0.041253333999999996
414,0.041353332
415,0.041446666
416,0.041546666
417,0.041646664
418,0.041746664
419,0.041853334
420,0.041953335999999994
421,0.042053334000000005
422,0.042153336
423,0.04226
424,0.042359999999999995
425,0.042446666
426,0.042553334000000005
427,0.042660001999999995
428,0.04276
429,0.042846666
430,0.042946666
431,0.043046672
432,0.04314666599999999
433,0.043253338
434,0.043353334
435,0.043446666
436,0.043546666000000005
437,0.043633334
438,0.043733334
439,0.043833332
440,0.04394
441,0.04405333200000001
442,0.044146672
443,0.044253334
444,0.044353338
445,0.044453334
446,0.044546666000000006
447,0.044646665999999995
448,0.04476000200000001
449,0.044860001999999996
450,0.044953334
451,0.045053338000000005
452,0.04515999999999999
453,0.045260004
454,0.045353334
455,0.045453337999999996
456,0.04556
457,0.045653332
458,0.045753334
459,0.045853334
460,0.045953334
461,0.046053331999999995
462,0.04614667
463,0.046260002
464,0.046346672
465,0.046439997999999996
466,0.046540006
467,0.046626666
468,0.046733331999999995
469,0.046846666
470,0.046953332
471,0.047066668
472,0.047159999999999994
473,0.047260004
474,0.047353332000000005
475,0.047453338
476,0.047560000000000005
477,0.047659997999999995
478,0.047753331999999996
479,0.047853334000000004
480,0.047946666000000006
481,0.048053332
482,0.04816
483,0.048253331999999996
484,0.048360004
485,0.04845999999999999
486,0.048553338
487,0.048660001999999994
488,0.048760000000000005
489,0.048839998
490,0.048953331999999995
491,0.04906
492,0.049166666000000005
493,0.049273333999999995
494,0.04935333200000001
495,0.049453338
496,0.04956000000000001
497,0.049666669999999996
498,0.049760000000000006
499,0.049860002
500,0.04996666799999999
501,0.050053334000000005
502,0.05016
503,0.050253334000000004
504,0.05035333399999999
505,0.050453332
506,0.050546672
507,0.05064666600000001
508,0.05074667200000001
509,0.050866666000000005
510,0.05096666799999999
511,0.05106000200000001
512,0.051160001999999996
513,0.051266668
514,0.051360002
515,0.051453332
516,0.051559997999999996
517,0.051660002000000003
518,0.051766665999999996
519,0.05185333599999999
520,0.05195999999999999
521,0.05205333399999999
522,0.052166668000000006
523,0.052259999999999994
524,0.052366666000000006
525,0.052453334
526,0.052546668
527,0.05265333400000001
528,0.052753338
529,0.052846668
530,0.052940004000000006
531,0.053053333999999994
532,0.053146665999999995
533,0.053253332
534,0.053346666
535,0.053453334
536,0.053553333999999994
537,0.05366
538,0.053759999999999995
539,0.053860004
540,0.053953334
541,0.054060003999999995
542,0.05416000000000001
543,0.054259999999999996
544,0.05436
545,0.054459999999999995
546,0.054553331999999996
547,0.05466
548,0.054759999999999996
549,0.054853334
550,0.054966669999999995
551,0.055046666
552,0.05514667200000001
553,0.055246666
554,0.055353334
555,0.055459999999999995
556,0.055546666
557,0.05565333400000001
558,0.055753334
559,0.055853334
560,0.055960001999999995
561,0.056046672
562,0.056146666
563,0.056240003999999996
564,0.056339998
565,0.056459999999999996
566,0.056566666
567,0.05666000200000001
568,0.056733334
569,0.05684
570,0.056946666
571,0.057053334
572,0.057160004
573,0.05726
574,0.057360004
575,0.057453334
576,0.057553334
577,0.057640000000000004
578,0.057746668
579,0.057846668000000004
580,0.057953334
581,0.058046668
582,0.058133331999999996
583,0.058240004
584,0.05833999999999999
585,0.058446672
586,0.058546666000000004
587,0.058660000000000004
588,0.058753334000000004
589,0.058853334
590,0.058953334
591,0.059053334
592,0.05915333199999999
593,0.059246666
594,0.059346672
595,0.059453334000000004
596,0.059546672
597,0.05965333399999999
598,0.059746666000000004
599,0.05983999999999999
600,0.05994000000000001
601,0.060046666000000005
602,0.060146665999999994
603,0.060246666000000004
604,0.060360002
605,0.060446672
606,0.060546666000000006
607,0.06064000399999999
608,0.06074
609,0.060846665999999994
610,0.06094000000000001
611,0.061053333999999994
612,0.06115333399999999
613,0.061253334000000006
614,0.061353334
615,0.061453334000000005
616,0.061553338
617,0.061646665999999996
618,0.061740003999999994
619,0.061846667999999994
620,0.061953334000000006
621,0.06206000199999999
622,0.062160002000000006
623,0.06225333400000001
624,0.062353334
625,0.062453334000000006
626,0.06255333399999999
627,0.06265333799999999
628,0.06274666799999999
629,0.06285333200000001
630,0.06294666600000001
631,0.06305333399999999
632,0.06314666999999999
633,0.06325333
634,0.06333999799999998
635,0.063446666
636,0.06355333799999999
637,0.06364
638,0.06374666600000001
639,0.06384
640,0.063953338
641,0.06406000399999999
642,0.064173334
643,0.064259998
644,0.06436666599999999
645,0.064453338
646,0.064559994
647,0.06465333599999999
648,0.064753336
649,0.064840004
650,0.06494000000000001
651,0.06504
652,0.06514
653,0.06524
654,0.06535333800000001
655,0.065453328
656,0.06555333399999999
657,0.06564666599999999
658,0.06574667199999999
659,0.06585333600000001
660,0.06594666600000001
661,0.066046666
662,0.06614666999999999
663,0.06624000399999999
664,0.066346666
665,0.066453332
666,0.066546668
667,0.06665333799999999
668,0.06675332999999999
669,0.066846666
670,0.06694000000000001
671,0.067040004
672,0.06714
673,0.06724
674,0.06734
675,0.06744666600000002
676,0.067546672
677,0.067646662
678,0.06774
679,0.06784
680,0.06794000400000001
681,0.06805333599999999
682,0.068146666
683,0.068246666
684,0.06834667000000001
685,0.06844667000000001
686,0.06854
687,0.068653332
688,0.06876
689,0.068860004
690,0.06895333000000001
691,0.06904
692,0.069146666
693,0.069253338
694,0.069346672
695,0.069453332
696,0.06954666400000001
697,0.06963333199999999
698,0.069740004
699,0.06983999599999999
700,0.069939998
701,0.070053332
702,0.070153338
703,0.070253336
704,0.070346666
705,0.070453334
706,0.070540004
707,0.070640004
708,0.07074
709,0.070833334
710,0.070933332
711,0.071026672
712,0.071139996
713,0.071253334
714,0.07134666599999999
715,0.071440004
716,0.071540002
717,0.07164
718,0.071733332
719,0.071846666
720,0.071940006
721,0.07203999600000001
722,0.072146664
723,0.072246666
724,0.07234666999999999
725,0.072433332
726,0.07253333199999999
727,0.072639998
728,0.072740006
729,0.072840006
730,0.07294
731,0.07303999800000001
732,0.07312666599999999
733,0.073233336
734,0.07333999799999999
735,0.07344666400000001
736,0.073553332
737,0.073653338
738,0.073740006
739,0.073826664
740,0.07393333
741,0.07403333
742,0.07414000600000001
743,0.074253328
744,0.07434666599999999
745,0.07446
746,0.07454667000000001
747,0.07465333199999999
748,0.07474666399999999
749,0.074839998
750,0.074940004
751,0.075040006
752,0.07513333
753,0.075226664
754,0.07532666400000002
755,0.075446672
756,0.075553332
757,0.075646666
758,0.07574666599999999
759,0.07584000399999999
760,0.075940006
761,0.076039998
762,0.07614
763,0.07624
764,0.07635333799999999
765,0.076439996
766,0.07654666600000001
767,0.076646666
768,0.07676000399999999
769,0.07684666799999999
770,0.076953332
771,0.077039998
772,0.077146672
773,0.077240006
774,0.07735333200000001
775,0.077453332
776,0.07754666600000001
777,0.07765333599999999
778,0.07775333599999999
779,0.07785333400000001
780,0.077939998
781,0.07804667200000001
782,0.078140004
783,0.07824
784,0.07835333200000001
785,0.078446666
786,0.07854000600000001
787,0.078646662
788,0.07874666599999999
789,0.07885333399999998
790,0.07894667200000001
791,0.079046668
792,0.079146664
793,0.079246664
794,0.07934667200000001
795,0.07944000400000001
796,0.07955333
797,0.07966
798,0.07976
799,0.07984667000000001
800,0.07994666399999999
801,0.08004000000000001
802,0.080146666
803,0.080253338
804,0.080353338
805,0.080459998
806,0.080553332
807,0.080653332
808,0.080760004
809,0.080853328
810,0.08094666800000001
811,0.081040002
812,0.08114667
813,0.08124
814,0.08134
815,0.08144
816,0.081553336
817,0.081660002
818,0.081759998
819,0.08185333399999999
820,0.081946666
821,0.082053338
822,0.08214
823,0.082239998
824,0.08234666599999999
825,0.08244000599999998
826,0.082546672
827,0.082653332
828,0.082746666
829,0.08285333399999999
830,0.08294667
831,0.08305333000000001
832,0.083146668
833,0.08324
834,0.08334667200000001
835,0.083446668
836,0.08354
837,0.08364
838,0.083740006
839,0.08385333800000001
840,0.08395332999999998
841,0.08405333400000001
842,0.084153334
843,0.084253338
844,0.08434000400000001
845,0.08443999799999999
846,0.084546666
847,0.084646672
848,0.084733338
849,0.084839998
850,0.084946666
851,0.08504
852,0.08514666800000001
853,0.08525999599999999
854,0.085346666
855,0.08544666599999999
856,0.085540004
857,0.085626668
858,0.08574
859,0.08584
860,0.085933336
861,0.08602667
862,0.08613333
863,0.086239998
864,0.086326666
865,0.08642667000000001
866,0.086526668
867,0.08663999800000001
868,0.08675333199999999
869,0.08685333799999999
870,0.086960004
871,0.08705333200000001
872,0.08713333200000001
873,0.087226666
874,0.08732667
875,0.08743333000000002
876,0.08754666800000001
877,0.08764666600000001
878,0.08773334
879,0.087826672
880,0.087940002
881,0.08803333399999999
882,0.088133338
883,0.088240004
884,0.08834666199999999
885,0.08845999999999998
886,0.088553334
887,0.08864667200000001
888,0.088746668
889,0.08884666599999999
890,0.08895333400000001
891,0.08904667200000001
892,0.08914000400000001
893,0.089239998
894,0.08934666599999999
895,0.089446666
896,0.08955333600000001
897,0.089639996
898,0.08974
899,0.089833334
900,0.08995333800000001
901,0.090040006
902,0.090139998
903,0.090246666
904,0.09035333799999999
905,0.090446672
906,0.090539996
907,0.090639998
908,0.090746666
909,0.09085333799999999
910,0.090953332
911,0.09103333200000001
912,0.091153334
913,0.091246672
914,0.09135333799999999
915,0.091459998
916,0.091566666
917,0.091653332
918,0.09175333799999999
919,0.091846662
920,0.091939998
921,0.09204666800000001
922,0.09214667000000001
923,0.09224667
924,0.092353334
925,0.092446666
926,0.092560004
927,0.092653336
928,0.09275333
929,0.092853332
930,0.092946664
931,0.093033336
932,0.093146668
933,0.093253334
934,0.093346666
935,0.09344000400000001
936,0.09354667000000001
937,0.093653336
938,0.09375333599999999
939,0.093846668
940,0.09394666999999998
941,0.09403333
942,0.094146666
943,0.094246666
944,0.09434667
945,0.09444667200000001
946,0.094553334
947,0.094646666
948,0.094753336
949,0.09484667
950,0.09494666199999999
951,0.095033332
952,0.095133334
953,0.095233336
954,0.09533999600000001
955,0.095453334
956,0.095553334
957,0.095653336
958,0.095753336
959,0.095846668
960,0.095940002
961,0.096040002
962,0.09614667
963,0.096253332
964,0.09635999999999999
965,0.09645999999999999
966,0.09654666999999999
967,0.09664667
968,0.09674666800000001
969,0.09684
970,0.096940004
971,0.09704666799999999
972,0.09714666200000001
973,0.09724666600000001
974,0.097333334
975,0.09743333800000001
976,0.097533336
977,0.097646668
978,0.09774666800000001
979,0.097860002
980,0.09796666999999999
981,0.09806000200000001
982,0.098146668
983,0.09824000000000001
984,0.09833333600000001
985,0.098433332
986,0.098546668
987,0.09865333400000001
988,0.09874667000000001
989,0.098846672
990,0.098939998
991,0.099046666
992,0.09914667
993,0.099233336
994,0.09933333
995,0.09944
996,0.099546668
997,0.09964000199999999
998,0.099733336
999,0.09984
1000,0.09994666799999999
1001,0.10004668000000001
1002,0.10015336
1003,0.10024668
1004,0.10034666
1005,0.10044666
1006,0.10054665999999998
1007,0.10064668000000002
1008,0.10074000000000001
1009,0.10084
1010,0.10094666000000001
1011,0.10103999999999999
1012,0.10114668
1013,0.10124668
1014,0.10135334
1015,0.10145333999999999
1016,0.10154002
1017,0.10164
1018,0.10174000000000001
1019,0.10184666
1020,0.10194666
1021,0.10204666
1022,0.10215334000000001
1023,0.10224663999999999
1024,0.10235332000000001
1025,0.10244664
1026,0.10255999999999998
1027,0.10264668000000002
1028,0.10274668
1029,0.10284
1030,0.10295333999999998
1031,0.10305334
1032,0.10316001999999999
1033,0.10326667999999999
1034,0.10335332000000001
