,Stroke (mm)
0,0.0
1,6.6666659999999995e-06
2,1.9999998e-05
3,1.9999998e-05
4,4.6666666e-05
5,7.3333336e-05
6,0.00010666665999999999
7,0.00018
8,0.00033333332
9,0.00054666666
10,0.0007266667
11,0.0008933333600000001
12,0.0010533332000000001
13,0.0011866666
14,0.0012933332
15,0.0013933332
16,0.0015
17,0.0016133334
18,0.0017133332000000001
19,0.0018066666000000002
20,0.0019199998
21,0.00202
22,0.0021266666
23,0.0022266668000000002
24,0.0023266667999999996
25,0.0024200002
26,0.0025133332
27,0.0026266666
28,0.0027333334000000003
29,0.0028333334
30,0.0029400000000000003
31,0.00304
32,0.0031333334000000004
33,0.0032466668
34,0.00334
35,0.0034333334
36,0.0035333334
37,0.003646666799999999
38,0.0037400000000000003
39,0.0038399999999999997
40,0.003953333200000001
41,0.0040533334
42,0.0041533332
43,0.0042466666
44,0.0043600004
45,0.0044533332
46,0.004553333200000001
47,0.004646667
48,0.004739999999999999
49,0.0048533334
50,0.004946666800000001
51,0.0050466668
52,0.0051400004
53,0.00524
54,0.005346666599999999
55,0.0054466668
56,0.005553333400000001
57,0.00566
58,0.0057400001999999995
59,0.005840000199999999
60,0.0059466668
61,0.006046666800000001
62,0.0061466668000000006
63,0.006246667
64,0.006340000200000001
65,0.0064466668000000005
66,0.006546666999999999
67,0.006659999999999999
68,0.0067599999999999995
69,0.006846667000000001
70,0.0069466666
71,0.0070600001999999995
72,0.0071600002
73,0.0072600002
74,0.0073533336
75,0.0074600002
76,0.0075466668
77,0.007653333599999999
78,0.0077600002000000005
79,0.007853334
80,0.0079533332
81,0.008053333
82,0.0081533334
83,0.0082666668
84,0.008360000199999999
85,0.0084600002
86,0.008553333
87,0.00866
88,0.00876
89,0.008860000199999999
90,0.0089600006
91,0.0090533336
92,0.009153333
93,0.00926
94,0.0093599998
95,0.0094533336
96,0.009553333599999998
97,0.009653333
98,0.0097533332
99,0.0098599998
100,0.0099600004
101,0.010053334
102,0.010159999999999999
103,0.010253334
104,0.010360002
105,0.010453334000000002
106,0.010546666
107,0.010646665999999999
108,0.010760002
109,0.010873334000000002
110,0.010953332
111,0.011046667999999999
112,0.011146666
113,0.011253334
114,0.011373334
115,0.011466668
116,0.011566667999999999
117,0.01166
118,0.011753332
119,0.011846665999999999
120,0.011946666
121,0.012053334
122,0.012153333999999998
123,0.012246668
124,0.012346668
125,0.012453334
126,0.012553334
127,0.01266
128,0.012766666000000001
129,0.01286
130,0.01296
131,0.013053334
132,0.013153334
133,0.013253334
134,0.013333332
135,0.013440000000000002
136,0.013546668000000001
137,0.013653334
138,0.013753334
139,0.013853334
140,0.013966665999999999
141,0.014066666
142,0.01416
143,0.014253334000000001
144,0.014353334
145,0.014446666
146,0.014546666
147,0.014660002
148,0.014753333999999998
149,0.014866668
150,0.014960000000000001
151,0.015059999999999999
152,0.015153334000000001
153,0.01526
154,0.015360000000000002
155,0.015453333999999999
156,0.015553333999999999
157,0.015646668000000002
158,0.015753334
159,0.015853334
160,0.015946668
161,0.016046668000000004
162,0.016146668000000003
163,0.016253334
164,0.01636
165,0.016453334
166,0.016553334
167,0.016646668000000003
168,0.01676
169,0.01686
170,0.016953334
171,0.017046666
172,0.017153334
173,0.017260002
174,0.017353333999999998
175,0.017466666
176,0.017566666
177,0.01766
178,0.017759999999999998
179,0.017853334
180,0.01794
181,0.018040002
182,0.018140002
183,0.018246668
184,0.018353334
185,0.018453334000000002
186,0.018553333999999998
187,0.018653336
188,0.018753334
189,0.018846665999999998
190,0.018946666
191,0.019059998
192,0.019159998
193,0.019253333999999997
194,0.01936
195,0.019459999999999998
196,0.019553334
197,0.019646668
198,0.019746668
199,0.01986
200,0.01996
201,0.020053334
202,0.020153334000000002
203,0.02026
204,0.02036
205,0.02046
206,0.020546666
207,0.020653334000000002
208,0.02076
209,0.020866667999999998
210,0.020966668
211,0.021060002
212,0.02116
213,0.021259999999999998
214,0.02136
215,0.021459997999999997
216,0.021566666
217,0.021666666
218,0.021753334
219,0.021846666
220,0.021960002
221,0.022053334
222,0.022153331999999998
223,0.022246666
224,0.022353332
225,0.022466666000000003
226,0.022566666
227,0.022666666000000002
228,0.022753334
229,0.022853334
230,0.02296
231,0.023053332
232,0.023153332
233,0.023259997999999997
234,0.023353332
235,0.023453332
236,0.023546664000000002
237,0.023646666
238,0.02376
239,0.023853332
240,0.023953334
241,0.024046667999999997
242,0.02416
243,0.024246666
244,0.024360002000000002
245,0.024466667999999997
246,0.024559999999999995
247,0.024666665999999997
248,0.024773334
249,0.024866666000000003
250,0.02496
251,0.02506
252,0.02516
253,0.025266666000000004
254,0.025359998
255,0.025446664
256,0.025539998
257,0.025646663999999996
258,0.025746665999999994
259,0.02586
260,0.025953334
261,0.026053334
262,0.026153334
263,0.026253331999999997
264,0.026346666
265,0.026453334000000002
266,0.026546667999999995
267,0.026646667999999995
268,0.026753334
269,0.026846666
270,0.026940000000000002
271,0.027033334
272,0.027146667999999995
273,0.027253334
274,0.027346668
275,0.027440002
276,0.027559999999999994
277,0.027666666
278,0.027766666000000002
279,0.027853332
280,0.02794
281,0.028053335999999995
282,0.028153334000000002
283,0.028253334
284,0.028353334
285,0.028453334000000004
286,0.028546667999999997
287,0.028646665999999998
288,0.028746668000000003
289,0.028846668000000002
290,0.02894
291,0.029053333999999997
292,0.02916
293,0.02926
294,0.029366666000000003
295,0.029466666000000002
296,0.029559999999999996
297,0.02966
298,0.029753334
299,0.029846668000000003
300,0.029953334000000005
301,0.030053333999999998
302,0.030153333999999997
303,0.030246667999999997
304,0.030340001999999998
305,0.030453334
306,0.030553333999999998
307,0.030666666
308,0.030760000000000003
309,0.030853334
310,0.030959999999999998
311,0.031059999999999997
312,0.03116
313,0.031253334
314,0.031346668
315,0.031446668
316,0.031540002
317,0.031640002
318,0.031746668
319,0.031853334
320,0.031953334
321,0.032053336
322,0.032146668
323,0.032253336
324,0.03236
325,0.03245333200000001
326,0.03255999799999999
327,0.032659998
328,0.032766666
329,0.03286
330,0.03296
331,0.033053332
332,0.033160004
333,0.033246666
334,0.033353337999999996
335,0.033460002
336,0.03355999999999999
337,0.033653334
338,0.03376
339,0.033853332
340,0.033960000000000004
341,0.034066665999999995
342,0.034153334
343,0.034253338
344,0.034346666000000005
345,0.034460004
346,0.034559999999999994
347,0.034673334
348,0.034780002
349,0.03486
350,0.034966666
351,0.035059999999999994
352,0.035173331999999995
353,0.035253332000000005
354,0.035353338
355,0.035453332
356,0.03556000399999999
357,0.035660002
358,0.035760002
359,0.035866668000000004
360,0.035966665999999994
361,0.036066668
362,0.03616
363,0.036266664000000004
364,0.036366666
365,0.036460004000000004
366,0.036559999999999995
367,0.036673336
368,0.03676
369,0.03686666799999999
370,0.036973336
371,0.037066668000000004
372,0.03715999999999999
373,0.03726
374,0.037353331999999996
375,0.037446668
376,0.03754667
377,0.037653332000000005
378,0.037760004
379,0.037866668000000006
380,0.037966665999999996
381,0.038073332
382,0.038173332
383,0.03826
384,0.038353333999999996
385,0.038453332
386,0.038553332
387,0.038660004000000005
388,0.03876
389,0.038860004
390,0.038953332
391,0.039059998
392,0.039166665999999996
393,0.03926666599999999
394,0.03935999799999999
395,0.039459998
396,0.039553332000000004
397,0.03966
398,0.039760004
399,0.039859997999999994
400,0.039960004
401,0.040066666
402,0.04016000200000001
403,0.04026
404,0.040353332
405,0.040453332
406,0.040553332000000004
407,0.040653332
408,0.040753333999999995
409,0.040833336
410,0.040940001999999996
411,0.041040002000000006
412,0.041139999999999996
413,0.041253332
414,0.041353334
415,0.041453333999999994
416,0.041566666
417,0.041653334
418,0.041753333999999996
419,0.041846666
420,0.04194667
421,0.042046668
422,0.042160003999999994
423,0.042253332
424,0.042359999999999995
425,0.042466666
426,0.042553334000000005
427,0.042646664
428,0.042746666
429,0.04284
430,0.042946666
431,0.04304000400000001
432,0.043153334
433,0.043273336
434,0.043366666
435,0.043453333999999996
436,0.043566666000000004
437,0.043640002
438,0.043753334
439,0.043853332
440,0.043959998
441,0.044046666000000005
442,0.044160003999999996
443,0.044246666000000004
444,0.04434667
445,0.044446666
446,0.04456
447,0.044666666
448,0.044766666
449,0.044873334
450,0.044973332
451,0.04506667
452,0.04516
453,0.045260002
454,0.045366666
455,0.04546667
456,0.04556666599999999
457,0.045666666
458,0.045773334000000006
459,0.045873334
460,0.045973334
461,0.04606
462,0.046146668
463,0.046246668000000005
464,0.046366668
465,0.046466666000000004
466,0.046553335999999994
467,0.04666
468,0.04676
469,0.046866668
470,0.046966666000000004
471,0.04706666599999999
472,0.047173332
473,0.047266668
474,0.047373332000000004
475,0.04746667
476,0.047560002000000004
477,0.047660002
478,0.047753336
479,0.047860002
480,0.047973334
481,0.048066668
482,0.048173332
483,0.048260002
484,0.048346668
485,0.048466666000000005
486,0.048560004000000004
487,0.04866
488,0.048753331999999996
489,0.048853332000000006
490,0.04894666599999999
491,0.049046666
492,0.049166666000000005
493,0.04927333199999999
494,0.049366666000000003
495,0.049466670000000004
496,0.049573334
497,0.049673336
498,0.049773334
499,0.049873332000000006
500,0.049973332
501,0.050079997999999994
502,0.050179998
503,0.050266665999999995
504,0.050366666000000004
505,0.05046666799999999
506,0.050560004000000006
507,0.050660000000000004
508,0.050753338
509,0.050846666000000006
510,0.05095999999999999
511,0.051066668
512,0.051166668000000005
513,0.051266668
514,0.051360002
515,0.05146000199999999
516,0.051566668
517,0.051666668000000006
518,0.051773336
519,0.05187333400000001
520,0.05195999999999999
521,0.05205333399999999
522,0.05215333400000001
523,0.052266668
524,0.052366668000000005
525,0.052466665999999995
526,0.052566666
527,0.052673334
528,0.05276000399999999
529,0.05286
530,0.052960004000000005
531,0.053059999999999996
532,0.05316666600000001
533,0.053259999999999995
534,0.053360002
535,0.05346000199999999
536,0.053559999999999997
537,0.05366
538,0.053759999999999995
539,0.053860003999999996
540,0.053959999999999994
541,0.054066668
542,0.05416666800000001
543,0.054266668000000004
544,0.05436
545,0.054453334
546,0.054546666
547,0.054646667999999995
548,0.054746666
549,0.05486
550,0.054960001999999994
551,0.055053333999999995
552,0.055160004000000006
553,0.05526
554,0.05536
555,0.055453334
556,0.055566666
557,0.05566
558,0.05576
559,0.05586
560,0.055953334
561,0.05604667
562,0.056146668
563,0.056253336
564,0.056346668
565,0.056453334
566,0.056553334
567,0.05666
568,0.05676
569,0.056853334
570,0.056953334
571,0.057053334
572,0.05716000400000001
573,0.057266666
574,0.057360004
575,0.05746
576,0.05756
577,0.057653334
578,0.05776
579,0.057866667999999996
580,0.057966666
581,0.05806
582,0.05815333399999999
583,0.058253336
584,0.058346666000000005
585,0.05844667
586,0.058553332
587,0.058653332
588,0.058753334000000004
589,0.058846668000000005
590,0.058953334
591,0.059053334
592,0.059166666
593,0.059273335999999996
594,0.059373336
595,0.059466666
596,0.059553336
597,0.05965333399999999
598,0.059753334000000005
599,0.05984666799999999
600,0.059953334000000004
601,0.060053334
602,0.06015333399999999
603,0.060253334000000006
604,0.06034666799999999
605,0.06044667
606,0.060553334
607,0.060653336
608,0.06076
609,0.06085999999999999
610,0.060966666
611,0.06106
612,0.06115999999999999
613,0.061266666000000004
614,0.06136666599999999
615,0.06146
616,0.061560004
617,0.061666668
618,0.061753336000000006
619,0.061853333999999996
620,0.061953334000000006
621,0.062053333999999995
622,0.06215333199999999
623,0.062273334
624,0.062366668
625,0.062466668
626,0.062566668
627,0.06266667
628,0.062766664
629,0.062866668
630,0.062966668
631,0.063066668
632,0.06316000399999999
633,0.06325999600000001
634,0.063353334
635,0.06346
636,0.06356000399999999
637,0.06366000000000001
638,0.063766668
639,0.06387333599999999
640,0.063973338
641,0.06407333600000001
642,0.06417999999999999
643,0.06428
644,0.064373334
645,0.06446667
646,0.064553328
647,0.06465333399999999
648,0.06476
649,0.064860004
650,0.064966664
651,0.06505333199999999
652,0.065153334
653,0.06526000000000001
654,0.065360004
655,0.06546666400000001
656,0.065566666
657,0.06566666800000001
658,0.065766672
659,0.065873334
660,0.065953332
661,0.06606
662,0.066160004
663,0.066253338
664,0.06635333400000001
665,0.066466668
666,0.066573336
667,0.066660002
668,0.06675332999999999
669,0.06686
670,0.06696
671,0.06706000399999999
672,0.067153332
673,0.067253334
674,0.067353334
675,0.06746666600000001
676,0.06756000399999999
677,0.067659998
678,0.06775333399999998
679,0.06785333400000002
680,0.067933338
681,0.068040004
682,0.068153332
683,0.06825999999999999
684,0.068360004
685,0.068460002
686,0.068566666
687,0.068666666
688,0.068766668
689,0.06885333800000001
690,0.068946662
691,0.06904
692,0.069146666
693,0.06924667
694,0.069340004
695,0.06945999800000001
696,0.069566668
697,0.069666668
698,0.069760004
699,0.06985999600000001
700,0.069946668
701,0.07004666600000001
702,0.070140004
703,0.07024667
704,0.07036
705,0.070466668
706,0.07056667
707,0.07066667
708,0.07076000200000002
709,0.070853334
710,0.070946668
711,0.07104667
712,0.07115333
713,0.071253334
714,0.07136
715,0.071453336
716,0.07154667
717,0.07164
718,0.07174
719,0.071846666
720,0.071953336
721,0.07205333
722,0.072153334
723,0.07226666600000001
724,0.07236667
725,0.07245333200000001
726,0.07256
727,0.07265999999999999
728,0.072766672
729,0.072860004
730,0.07296
731,0.073053334
732,0.07315999999999999
733,0.07326000399999999
734,0.07335333
735,0.07346
736,0.073553334
737,0.07364667
738,0.073760004
739,0.07386
740,0.07396
741,0.07406
742,0.074160004
743,0.07426666200000001
744,0.074366668
745,0.074473334
746,0.07456667
747,0.07467333200000001
748,0.07476000199999999
749,0.07485333599999999
750,0.074960002
751,0.07504667000000001
752,0.07515999999999999
753,0.07526
754,0.075359998
755,0.075460004
756,0.075579994
757,0.075673334
758,0.07575333399999999
759,0.075853338
760,0.07595333800000001
761,0.07606
762,0.07615999999999999
763,0.076253334
764,0.076353334
765,0.076453332
766,0.07656
767,0.07667333600000001
768,0.07676000599999999
769,0.07686
770,0.07696
771,0.077060002
772,0.07716667
773,0.07726667000000001
774,0.07736000000000001
775,0.07746
776,0.077566666
777,0.077673336
778,0.07776
779,0.07785999800000001
780,0.077946666
781,0.07804667000000001
782,0.07816667
783,0.07825999800000001
784,0.078359998
785,0.07847333599999999
786,0.07856667
787,0.078673328
788,0.07877999999999999
789,0.078873336
790,0.078966672
791,0.079060002
792,0.079166666
793,0.079280002
794,0.079366672
795,0.07946667
796,0.07955333
797,0.07966
798,0.079753332
799,0.079846672
800,0.07994666800000001
801,0.080053332
802,0.080153332
803,0.080253338
804,0.08036000400000001
805,0.080439998
806,0.08054000000000001
807,0.08066
808,0.08078000199999999
809,0.08087333000000001
810,0.080966668
811,0.08106
812,0.081173338
813,0.081253332
814,0.08135999999999999
815,0.08146
816,0.08156667000000001
817,0.081660004
818,0.08175333
819,0.081853332
820,0.08194
821,0.08204667
822,0.082153332
823,0.08225333199999998
824,0.08235333199999999
825,0.08246667
826,0.082553338
827,0.08266
828,0.08276666599999999
829,0.08286666599999999
830,0.082960004
831,0.083059998
832,0.083153334
833,0.08325333399999998
834,0.08335333600000001
835,0.083453336
836,0.08355333200000001
837,0.083666668
838,0.08374667
839,0.08386667
840,0.08395999600000001
841,0.08406
842,0.084153332
843,0.084253336
844,0.08435333599999999
845,0.08444666599999999
846,0.084546666
847,0.084653338
848,0.08474667
849,0.08485333399999999
850,0.08495333400000002
851,0.085046668
852,0.085153336
853,0.08525999599999999
854,0.085353334
855,0.08546000000000001
856,0.085573334
857,0.085666664
858,0.085773334
859,0.08586666600000001
860,0.08597333599999998
861,0.086066668
862,0.086159996
863,0.08627333400000001
864,0.08636666800000001
865,0.086460002
866,0.08655333200000001
867,0.08664666800000001
868,0.08675333199999999
869,0.086853336
870,0.08696666999999998
871,0.087059998
872,0.08716
873,0.087266666
874,0.08735333799999999
875,0.08745999600000001
876,0.08756
877,0.08766
878,0.08776667
879,0.087873334
880,0.087966666
881,0.088066666
882,0.088153334
883,0.08826000199999999
884,0.08835999800000001
885,0.088453334
886,0.08855333400000001
887,0.088653336
888,0.08875999999999999
889,0.08886
890,0.08895333400000001
891,0.089060004
892,0.089173336
893,0.08927333400000001
894,0.089366666
895,0.08946000000000001
896,0.089560004
897,0.08965999599999999
898,0.089753334
899,0.089873334
900,0.08996667
901,0.090060004
902,0.09016
903,0.090266668
904,0.090360004
905,0.09046667
906,0.090559996
907,0.09066
908,0.090766666
909,0.090873336
910,0.090966668
911,0.091066666
912,0.091186668
913,0.091280002
914,0.09138000199999999
915,0.091460002
916,0.09156
917,0.091653332
918,0.09175333799999999
919,0.09187333
920,0.09195333399999998
921,0.092053334
922,0.092160004
923,0.09226000399999999
924,0.092366668
925,0.092473336
926,0.09256667
927,0.09266667
928,0.092766662
929,0.092866668
930,0.092966668
931,0.09306667
932,0.093153336
933,0.09326
934,0.093366668
935,0.093473336
936,0.09356667
937,0.09366
938,0.09376
939,0.09386
940,0.09395333800000001
941,0.094046662
942,0.09416000000000001
943,0.09426
944,0.094353336
945,0.09445333600000001
946,0.094566668
947,0.09466
948,0.09476667
949,0.09486667
950,0.094959996
951,0.095053334
952,0.095153334
953,0.09524667
954,0.09536
955,0.095466666
956,0.09556
957,0.095653338
958,0.095760004
959,0.095853334
960,0.09595333399999999
961,0.09606
962,0.096160004
963,0.096266664
964,0.09635333399999998
965,0.09645333599999999
966,0.09654666999999999
967,0.09664667
968,0.09674666800000001
969,0.09685333399999999
970,0.096953336
971,0.09706667
972,0.09715332800000001
973,0.09726
974,0.097360002
975,0.09746000399999999
976,0.097560004
977,0.09765333200000001
978,0.09776
979,0.097860004
980,0.09795333799999999
981,0.098053332
982,0.09815333200000001
983,0.098253334
984,0.098360004
985,0.09845999999999999
986,0.09855333399999999
987,0.09866
988,0.098760004
989,0.098846672
990,0.09895333399999999
991,0.099046666
992,0.09915333800000001
993,0.09924667000000001
994,0.09935332799999999
995,0.09945333399999999
996,0.099546668
997,0.09964667
998,0.099746664
999,0.099846668
1000,0.09996000000000001
1001,0.10006
1002,0.10015999999999999
1003,0.10026000000000002
1004,0.10036666000000001
1005,0.10046666
1006,0.10055334
1007,0.10066
1008,0.10076
1009,0.10086000000000002
1010,0.10096000000000001
1011,0.10107332
1012,0.10116665999999999
1013,0.10125999999999999
1014,0.10134668
1015,0.10146
1016,0.10155334
1017,0.10165334
1018,0.10176
1019,0.10185332
1020,0.10196000000000001
1021,0.10206002
1022,0.10215333999999998
1023,0.10226000000000002
1024,0.10235334
1025,0.10246
1026,0.10255333999999998
1027,0.10265334
1028,0.10275334
1029,0.10286000000000002
1030,0.10296000000000001
1031,0.10306
1032,0.10315999999999999
1033,0.10325999999999999
1034,0.10336666000000001
1035,0.10346
1036,0.10355334000000001
1037,0.10366668000000001
1038,0.10376002
1039,0.10386668000000002
1040,0.10397334
1041,0.10407333999999999
1042,0.10415999999999999
1043,0.10426000000000002
1044,0.10436666000000001
1045,0.10444666
1046,0.10454665999999999
1047,0.10464665999999997
1048,0.10476
1049,0.10486
1050,0.10496668
1051,0.10506668
1052,0.10516668
1053,0.10526667999999999
1054,0.10535999999999998
1055,0.10546
1056,0.10556665999999999
1057,0.10566666
1058,0.10575998
1059,0.10585332
1060,0.10596002
1061,0.10606668000000001
1062,0.10616668
1063,0.10626668000000002
1064,0.10636668
1065,0.10646
1066,0.10655999999999999
1067,0.10665997999999999
1068,0.10675998000000002
1069,0.10685998000000001
1070,0.10695331999999999
1071,0.10706
1072,0.10715333999999999
1073,0.10725334000000002
1074,0.10734668
1075,0.10744666
1076,0.10756666
1077,0.10767333999999999
1078,0.10776666000000001
