,Stroke (mm)
0,0.0
1,6.6666659999999995e-06
2,1.3333331999999999e-05
3,1.9999998e-05
4,3.999999799999999e-05
5,7.3333336e-05
6,0.00011333332000000002
7,0.00015999998
8,0.00027333334
9,0.00045333334
10,0.0006400000200000001
11,0.00081333328
12,0.0009666668200000001
13,0.00112
14,0.00124
15,0.0013733334
16,0.0014933332
17,0.0016066666
18,0.00172
19,0.00182
20,0.0019266666000000003
21,0.0020466665999999997
22,0.0021466666
23,0.0022466666000000002
24,0.0023466665999999996
25,0.0024533332000000003
26,0.0025333332
27,0.0026266666
28,0.0027333334000000003
29,0.0028266666
30,0.0029266663999999998
31,0.00302
32,0.0031133332
33,0.0031999998
34,0.0033066666
35,0.0034133332000000002
36,0.0035066665999999996
37,0.0036200002
38,0.0037133334
39,0.0038066666
40,0.0039133334
41,0.0040066666
42,0.0041133333999999995
43,0.004213333400000001
44,0.0043266668
45,0.0044266668
46,0.00452
47,0.0046200002
48,0.0047200003999999995
49,0.004826667
50,0.0049200002
51,0.0050266666
52,0.0051200004
53,0.00522
54,0.0053266666
55,0.0054400002000000005
56,0.00554
57,0.0056466666
58,0.0057333335999999995
59,0.00584
60,0.0059466668
61,0.006053333400000001
62,0.0061533334000000005
63,0.0062466672
64,0.0063399998
65,0.0064399998
66,0.0065266668
67,0.006646666800000001
68,0.0067466667999999995
69,0.006846667000000001
70,0.0069466666
71,0.0070399998
72,0.007133333200000001
73,0.0072466666
74,0.0073400006
75,0.0074466668
76,0.0075466666
77,0.007660000400000001
78,0.0077666668
79,0.0078600006
80,0.0079666666
81,0.008059999600000001
82,0.00816
83,0.0082533332
84,0.0083533338
85,0.0084533338
86,0.0085533328
87,0.0086466666
88,0.008746666599999998
89,0.008846667200000002
90,0.0089533338
91,0.0090599996
92,0.0091599996
93,0.009260000199999998
94,0.0093533334
95,0.0094466672
96,0.009546666999999998
97,0.0096533328
98,0.0097533336
99,0.0098533334
100,0.0099533338
101,0.01004
102,0.010153332
103,0.010253332
104,0.010353334
105,0.010446665999999999
106,0.01056
107,0.010666666
108,0.010759998000000002
109,0.010873334000000002
110,0.010960000000000001
111,0.011053334000000001
112,0.011146666
113,0.01124
114,0.011339998
115,0.011460000000000001
116,0.011559999999999999
117,0.011653334000000001
118,0.011760002
119,0.011859999999999999
120,0.011960000000000002
121,0.012060002
122,0.01216
123,0.012253332
124,0.012366666000000002
125,0.012466665999999998
126,0.012566668
127,0.012639999999999998
128,0.012746668
129,0.012839999999999999
130,0.012953332000000001
131,0.013059999999999999
132,0.013153332
133,0.01326
134,0.01336
135,0.01346
136,0.01356
137,0.01366
138,0.01376
139,0.013846665999999999
140,0.013953332000000002
141,0.014046666000000003
142,0.014153334
143,0.01426
144,0.014360000000000001
145,0.014466667999999999
146,0.014553334000000001
147,0.014653332
148,0.014733331999999998
149,0.014846666
150,0.014946666
151,0.015046666
152,0.015153332
153,0.015253331999999998
154,0.015359998
155,0.015459997999999999
156,0.015566666000000002
157,0.015659999999999997
158,0.015766666000000002
159,0.015866665999999998
160,0.01596
161,0.016053334000000002
162,0.016139998
163,0.016246666
164,0.016353331999999998
165,0.016446666000000002
166,0.016553331999999997
167,0.016646665999999997
168,0.016753332
169,0.016846666
170,0.016953332
171,0.017046667999999997
172,0.017153334
173,0.01726
174,0.017366666
175,0.017459998
176,0.017546666
177,0.017646666
178,0.017739998
179,0.017853332
180,0.017953332
181,0.01806
182,0.01816
183,0.018253332
184,0.018353334
185,0.018446666000000004
186,0.018560002000000003
187,0.018646666
188,0.018746666
189,0.018846666
190,0.018946666000000004
191,0.019053333999999998
192,0.019153334
193,0.019253334
194,0.019360002
195,0.019446665999999994
196,0.019553334
197,0.019646668
198,0.019746666
199,0.019853334
200,0.019946666
201,0.020053332
202,0.020146666
203,0.020246666
204,0.020346668000000002
205,0.020453334
206,0.020566666
207,0.020653332
208,0.020746668
209,0.020846668000000002
210,0.020946667999999995
211,0.021053334
212,0.021153334
213,0.021260002
214,0.021346666
215,0.021439998
216,0.02154
217,0.02164
218,0.021753334
219,0.021860002000000003
220,0.021953333999999998
221,0.022053334
222,0.022153334
223,0.022260002
224,0.022353334000000002
225,0.022446665999999997
226,0.022539999999999998
227,0.022646668000000002
228,0.022753332
229,0.02284
230,0.02294
231,0.023039998
232,0.023139998000000002
233,0.02324
234,0.023346668000000004
235,0.023453334
236,0.023553334000000002
237,0.02364
238,0.023753334
239,0.023860002
240,0.023953334
241,0.024053334
242,0.024153334000000002
243,0.024246668000000002
244,0.024346668000000005
245,0.024446667999999998
246,0.024553334
247,0.024653334
248,0.024766668000000002
249,0.024860002000000003
250,0.024953334
251,0.025046666000000002
252,0.025140000000000003
253,0.025246666
254,0.025353332
255,0.025446666
256,0.025546666000000003
257,0.025639997999999997
258,0.025753334
259,0.025853334
260,0.025946666
261,0.026039997999999998
262,0.026139997999999998
263,0.026259999999999995
264,0.026353331999999997
265,0.026446666
266,0.026546666000000003
267,0.026646666000000003
268,0.026753334
269,0.026860000000000002
270,0.026953334000000002
271,0.027053332000000003
272,0.027146666000000003
273,0.027246665999999996
274,0.027346666000000002
275,0.02744
276,0.02754
277,0.027646665999999997
278,0.027759999999999996
279,0.027860000000000003
280,0.027960000000000002
281,0.028059999999999995
282,0.028159998000000002
283,0.028253332
284,0.028346666
285,0.028453333999999997
286,0.028546666
287,0.02864
288,0.028753332
289,0.028853332
290,0.028953332
291,0.029046666
292,0.029153334000000003
293,0.029253334
294,0.029359999999999997
295,0.029473334
296,0.029566668
297,0.029666668
298,0.029766668000000003
299,0.029860002000000004
300,0.029953333999999998
301,0.030046666
302,0.030146666
303,0.03024
304,0.030353334
305,0.030446666
306,0.030546666
307,0.030646666
308,0.030753334
309,0.03086
310,0.030959998
311,0.031066666
312,0.031166668
313,0.031259999999999996
314,0.03136
315,0.031446666
316,0.031546665999999994
317,0.03164
318,0.031746668
319,0.03186
320,0.031946668
321,0.032053338
322,0.032153334
323,0.032253338
324,0.03236
325,0.03245333400000001
326,0.032560002
327,0.03266000200000001
328,0.032753334
329,0.032853334
330,0.032959999999999996
331,0.033046665999999995
332,0.033153336000000005
333,0.033253334
334,0.033360004
335,0.03346
336,0.033553334
337,0.03365333400000001
338,0.033766668
339,0.033860002
340,0.03397333600000001
341,0.03405999999999999
342,0.03416
343,0.034253338
344,0.034353334
345,0.034453338
346,0.034566665999999996
347,0.034673334
348,0.034766668
349,0.034866666000000004
350,0.034966666
351,0.035046667999999996
352,0.035146668000000006
353,0.035253334000000004
354,0.03536667
355,0.035460002000000004
356,0.03556000399999999
357,0.035660002
358,0.035753334000000005
359,0.035853334
360,0.035946666
361,0.036046666
362,0.036160002000000004
363,0.036253332000000006
364,0.036359999999999996
365,0.03644667
366,0.036566668
367,0.036666668
368,0.036753334000000006
369,0.036853334
370,0.036953336
371,0.037046668
372,0.03716
373,0.037266668
374,0.03736666799999999
375,0.037466668
376,0.037580002
377,0.037660000000000006
378,0.037753336000000005
379,0.03784666799999999
380,0.03794000000000001
381,0.038040000000000004
382,0.03814666800000001
383,0.038246668
384,0.038353333999999996
385,0.038453334
386,0.038566668
387,0.038673336
388,0.038766668000000004
389,0.03886667
390,0.03896000200000001
391,0.03906
392,0.039153334000000005
393,0.03926
394,0.03935999999999999
395,0.039453332
396,0.039559998
397,0.039666668
398,0.03976667
399,0.03986000199999999
400,0.039946671999999996
401,0.040040000000000006
402,0.04014666800000001
403,0.04026666599999999
404,0.040366665999999995
405,0.04046000200000001
406,0.040560002
407,0.040659999999999995
408,0.040760000000000005
409,0.040860004
410,0.040966666
411,0.041040004000000005
412,0.04114666600000001
413,0.041253333999999996
414,0.041353334
415,0.04147333599999999
416,0.041573336
417,0.04166000000000001
418,0.041760000000000005
419,0.04184
420,0.04196000400000001
421,0.042066666
422,0.04216667
423,0.042266668
424,0.042366667999999996
425,0.04246
426,0.042553334000000005
427,0.042660001999999995
428,0.04276
429,0.042859999999999995
430,0.042966668
431,0.04306667
432,0.043180001999999995
433,0.04326667
434,0.043359999999999996
435,0.043466668
436,0.043566668
437,0.043653333999999995
438,0.043746666000000003
439,0.043853331999999995
440,0.043959998
441,0.044059998
442,0.044166670000000005
443,0.04426000200000001
444,0.04436667
445,0.044473333999999996
446,0.044573334000000006
447,0.044666665999999994
448,0.04476000000000001
449,0.044866668
450,0.044953334
451,0.045060004
452,0.04515999999999999
453,0.04526667
454,0.045366668
455,0.045460004
456,0.045553334
457,0.04565999999999999
458,0.045766666
459,0.045866666
460,0.045973336
461,0.046060002
462,0.046160004
463,0.04626667
464,0.04636667
465,0.046460002
466,0.046553338
467,0.04666000199999999
468,0.04676000200000001
469,0.046853334
470,0.04696
471,0.047060000000000005
472,0.047166665999999996
473,0.047260004
474,0.047360002
475,0.047466668000000004
476,0.047560002000000004
477,0.047660002
478,0.04776667
479,0.047873336
480,0.047980002
481,0.048080002
482,0.048180002
483,0.048266668
484,0.048360004
485,0.04845999999999999
486,0.048566668
487,0.048660001999999994
488,0.048753334
489,0.04886
490,0.048953333999999994
491,0.049053334000000004
492,0.049160002
493,0.04926667
494,0.04936667
495,0.049460003999999995
496,0.04956000000000001
497,0.049666669999999996
498,0.049773334
499,0.049866668
500,0.049966668
501,0.050066668
502,0.050173336
503,0.050253334000000004
504,0.050346666
505,0.050453333999999996
506,0.050553338
507,0.050660002
508,0.05076667
509,0.050873336000000005
510,0.050980002
511,0.051073334000000005
512,0.051173334
513,0.051266668
514,0.051366668000000004
515,0.05146666799999999
516,0.051573336000000004
517,0.051673336
518,0.051780002000000006
519,0.051860003999999994
520,0.051953334
521,0.052046668000000004
522,0.052160002
523,0.052253334000000005
524,0.052360001999999996
525,0.05246000199999999
526,0.052573334000000006
527,0.052673334
528,0.052773336000000004
529,0.052860001999999996
530,0.05296667000000001
531,0.05306000000000001
532,0.053153332
533,0.05326000000000001
534,0.053360000000000005
535,0.053459999999999994
536,0.053559999999999997
537,0.053673335999999995
538,0.05376000200000001
539,0.053860003999999996
540,0.053973334
541,0.05407333600000001
542,0.05416666800000001
543,0.054273334000000006
544,0.054366665999999994
545,0.054466666
546,0.05456
547,0.05466
548,0.05476667
549,0.05486666999999999
550,0.05496000399999999
551,0.05507333400000001
552,0.055173336
553,0.055266666
554,0.05536
555,0.055459999999999995
556,0.055573333999999995
557,0.055666667999999996
558,0.05577333400000001
559,0.055859998
560,0.055953332
561,0.056053337999999994
562,0.05616666800000001
563,0.05627333599999999
564,0.056373334
565,0.056473336
566,0.056580002
567,0.056673334000000006
568,0.05678
569,0.05688
570,0.056986668
571,0.057080002
572,0.05718666800000001
573,0.057273335999999994
574,0.057360004
575,0.057466668
576,0.05756
577,0.057653334000000014
578,0.057766666
579,0.057866666
580,0.057973332
581,0.058066666
582,0.058153332
583,0.058266670000000007
584,0.05836
585,0.05846667
586,0.05856
587,0.05865999799999999
588,0.058766666
589,0.05886
590,0.05896
591,0.059073336
592,0.059166668
593,0.059260002
594,0.059366669999999996
595,0.05946
596,0.059560004
597,0.059666666
598,0.059766668
599,0.059860000000000003
600,0.05998
601,0.060073336
602,0.060166668
603,0.060266666
604,0.060366666
605,0.060446672
606,0.060553334
607,0.060660004000000003
608,0.060773334
609,0.060860000000000004
610,0.060966668
611,0.06106667
612,0.061166668
613,0.06126
614,0.061366668
615,0.061466668
616,0.061566670000000004
617,0.061653334000000004
618,0.061753338000000005
619,0.061853334
620,0.06196
621,0.06206666599999999
622,0.06216000000000001
623,0.062273334
624,0.062366668
625,0.062460002
626,0.06256000199999999
627,0.06266000399999999
628,0.06277332799999999
629,0.062873336
630,0.062973334
631,0.063073336
632,0.06316667000000001
633,0.063259994
634,0.063360002
635,0.063460002
636,0.06356666999999999
637,0.063673336
638,0.06377333199999999
639,0.063873332
640,0.06398000200000001
641,0.064080002
642,0.064173336
643,0.06426000000000001
644,0.064359998
645,0.06446667
646,0.06457333
647,0.064666668
648,0.06476000200000001
649,0.06485333800000001
650,0.064953332
651,0.06505333399999999
652,0.065153332
653,0.065246666
654,0.065360004
655,0.065466662
656,0.06558
657,0.065673334
658,0.06577333599999999
659,0.06586666399999999
660,0.065960002
661,0.06605333199999999
662,0.06615333799999999
663,0.066253338
664,0.06636
665,0.06646
666,0.066566668
667,0.066673336
668,0.066779996
669,0.066873334
670,0.066966666
671,0.06706667
672,0.067166664
673,0.067266668
674,0.06736
675,0.06747333600000001
676,0.06756667
677,0.067659994
678,0.06776000200000001
679,0.06784666800000001
680,0.067953336
681,0.06805333599999999
682,0.068159998
683,0.068259998
684,0.068366672
685,0.06846667
686,0.06856
687,0.06866
688,0.068766668
689,0.06887333600000001
690,0.06897333
691,0.069066668
692,0.069166666
693,0.06926667
694,0.06937333600000001
695,0.069466666
696,0.069573334
697,0.06966666599999999
698,0.06976667
699,0.069866664
700,0.069966666
701,0.070066666
702,0.07018000199999999
703,0.070273328
704,0.07036666800000001
705,0.070466668
706,0.070573336
707,0.070673336
708,0.07076
709,0.07086
710,0.070966666
711,0.07106667
712,0.07115999599999999
713,0.071266668
714,0.071366668
715,0.071466672
716,0.071580002
717,0.07166666799999999
718,0.071766668
719,0.071866668
720,0.07196667
721,0.072059994
722,0.07215333399999999
723,0.07226000000000002
724,0.07236667
725,0.07246
726,0.072566668
727,0.07266666799999999
728,0.07276666999999999
729,0.07287333599999998
730,0.072973334
731,0.073066666
732,0.07316666599999999
733,0.07326667
734,0.073366662
735,0.073473336
736,0.073566668
737,0.073680002
738,0.073773336
739,0.073873334
740,0.073960002
741,0.074073334
742,0.074173336
743,0.07427999599999999
744,0.074373336
745,0.07446667
746,0.074560004
747,0.07465999999999999
748,0.07476000199999999
749,0.074873334
750,0.074960004
751,0.075060004
752,0.07515333399999999
753,0.07526000199999999
754,0.07536000000000001
755,0.075460006
756,0.075573328
757,0.07566000199999999
758,0.075766668
759,0.07586667
760,0.075960004
761,0.076066668
762,0.07616666799999999
763,0.07626000200000001
764,0.076360002
765,0.076459996
766,0.076553334
767,0.07667333400000001
768,0.07676667
769,0.07686666
770,0.076966668
771,0.077066668
772,0.07716000399999999
773,0.077260004
774,0.07736000000000001
775,0.077466668
776,0.077560002
777,0.07766667
778,0.077766664
779,0.077866668
780,0.077973334
781,0.07806667
782,0.078173336
783,0.07828000199999999
784,0.078366668
785,0.078466668
786,0.078560002
787,0.07865333
788,0.07876
789,0.07885333400000001
790,0.07895333800000001
791,0.079053328
792,0.079160002
793,0.079260002
794,0.079353338
795,0.07945333800000001
796,0.079546664
797,0.079666668
798,0.07978000199999999
799,0.079880002
800,0.07996666399999999
801,0.080060002
802,0.080166668
803,0.08026000199999998
804,0.08036000400000001
805,0.080453332
806,0.080553334
807,0.080646668
808,0.08076000199999998
809,0.080859996
810,0.080960002
811,0.08106667
812,0.081173336
813,0.081253336
814,0.08135333200000001
815,0.08144
816,0.081540004
817,0.081640004
818,0.081746664
819,0.08186
820,0.08196
821,0.08206000399999999
822,0.082153332
823,0.082273336
824,0.082366668
825,0.08246667
826,0.08256667
827,0.082666666
828,0.08277333399999999
829,0.082873334
830,0.08296667
831,0.083066662
832,0.083153334
833,0.083246666
834,0.08334667199999998
835,0.083466668
836,0.083573334
837,0.083666668
838,0.08376667
839,0.083860004
840,0.083966662
841,0.084066668
842,0.084166668
843,0.084260004
844,0.08435999999999999
845,0.084466668
846,0.084560002
847,0.08464667000000001
848,0.084753338
849,0.08485333400000002
850,0.084946666
851,0.08505333200000001
852,0.085153338
853,0.08525332999999999
854,0.08536000000000002
855,0.08546000000000001
856,0.085573338
857,0.085666664
858,0.08576666799999999
859,0.08586000200000002
860,0.085953338
861,0.086060004
862,0.086153328
863,0.08625333399999999
864,0.086353334
865,0.08646000400000001
866,0.086560002
867,0.086653332
868,0.08676000199999999
869,0.08686000400000002
870,0.08696667
871,0.087060002
872,0.087153334
873,0.08726000199999999
874,0.087373336
875,0.08746666200000001
876,0.087560002
877,0.087646666
878,0.087753338
879,0.08784
880,0.08795333400000001
881,0.08805333400000001
882,0.08816667
883,0.08826667
884,0.088373328
885,0.08846666799999998
886,0.088553334
887,0.088653338
888,0.088746664
889,0.08886000000000001
890,0.08895999799999998
891,0.089060004
892,0.089153336
893,0.08925333399999999
894,0.08935333399999999
895,0.089446666
896,0.08954667200000001
897,0.08965333
898,0.08975333199999999
899,0.089866666
900,0.08997333599999999
901,0.090060004
902,0.090166668
903,0.09025999999999999
904,0.09036667
905,0.090453338
906,0.090559994
907,0.090660002
908,0.09076000199999999
909,0.090860004
910,0.09096
911,0.09106
912,0.09115999999999999
913,0.09126000399999999
914,0.09135333799999999
915,0.09146000000000001
916,0.091566668
917,0.091653334
918,0.09175333799999999
919,0.091859994
920,0.09196000200000001
921,0.09205333400000001
922,0.092153338
923,0.09224667
924,0.09235333399999998
925,0.09246000000000001
926,0.092560004
927,0.09268000200000001
928,0.092779996
929,0.09288000199999999
930,0.09296000200000001
931,0.09306667
932,0.09315999999999999
933,0.093253334
934,0.09335333599999998
935,0.09345333599999998
936,0.09355333600000001
937,0.093653336
938,0.09375333599999999
939,0.093853334
940,0.09395333799999998
941,0.094046664
942,0.094133332
943,0.094253334
944,0.094353338
945,0.09446667000000002
946,0.09456
947,0.094653332
948,0.094760004
949,0.094853338
950,0.09495999599999999
951,0.09506666600000001
952,0.09516000000000001
953,0.095253336
954,0.095353336
955,0.09545333200000002
956,0.095546666
957,0.095653338
958,0.095753338
959,0.09585333399999998
960,0.09596
961,0.09605999800000001
962,0.096160004
963,0.096253336
964,0.096346666
965,0.096446666
966,0.09655333799999999
967,0.096666668
968,0.096773332
969,0.09688
970,0.096973336
971,0.097060004
972,0.09715332800000001
973,0.09726
974,0.09735333399999999
975,0.09745333799999999
976,0.09756000000000001
977,0.09766
978,0.097746664
979,0.097840004
980,0.097940004
981,0.098053332
982,0.098166664
983,0.09826666599999999
984,0.098380004
985,0.09846666800000001
986,0.09855333200000001
987,0.09864666600000001
988,0.09874667200000001
989,0.098860004
990,0.09896
991,0.09906
992,0.099160004
993,0.09926667
994,0.099379996
995,0.09945999999999999
996,0.099560002
997,0.099660004
998,0.09974666800000001
999,0.09985333399999999
1000,0.099966668
1001,0.10005332
1002,0.10015998000000001
1003,0.10025998
1004,0.10035997999999999
1005,0.10046666000000001
1006,0.10055331999999999
1007,0.10065334
1008,0.10074665999999999
1009,0.10085999999999999
1010,0.10096000000000001
1011,0.10106
1012,0.10115334000000001
1013,0.10123998000000001
1014,0.10135332000000001
1015,0.10145332
1016,0.10155334
1017,0.10166002
1018,0.10176001999999999
1019,0.10186001999999998
1020,0.10195335999999999
1021,0.10206002
1022,0.10215334000000001
1023,0.10224666
1024,0.10235334
1025,0.10244666
1026,0.10254664
1027,0.10266
1028,0.10274666000000002
1029,0.10284666
1030,0.10294666
1031,0.10305331999999998
1032,0.10316001999999999
1033,0.10326002000000001
1034,0.10336000000000001
1035,0.10345332
1036,0.10355334000000001
1037,0.10363997999999999
1038,0.10376002
1039,0.10386667999999999
1040,0.10398001999999999
1041,0.1040667
1042,0.10416668
1043,0.10425999999999999
1044,0.10435334
1045,0.10444666
1046,0.10454665999999999
1047,0.10465334
1048,0.10474665999999999
1049,0.10485333999999999
1050,0.10494666
1051,0.10505334
1052,0.10515333999999998
1053,0.10524665999999998
1054,0.10534666000000001
1055,0.10546
1056,0.10556002
1057,0.10564666
1058,0.10575334
