,Stroke (mm)
0,0.0
1,6.6666659999999995e-06
2,1.9999998e-05
3,1.9999998e-05
4,4.6666666e-05
5,7.3333334e-05
6,0.00012666666000000002
7,0.00019999998
8,0.00034666666000000005
9,0.0005199999799999999
10,0.00072000002
11,0.00089333328
12,0.0010333334199999998
13,0.00115333348
14,0.0012733336000000002
15,0.0014133334
16,0.0015266668000000001
17,0.0016333334000000002
18,0.0017466665999999998
19,0.0018533332
20,0.00196
21,0.0020733334
22,0.0021533336
23,0.0022600002
24,0.0023533335999999998
25,0.0024533334
26,0.0025533334
27,0.0026466668
28,0.0027466668
29,0.0028533334
30,0.0029733334
31,0.00306
32,0.0031600000000000005
33,0.00326
34,0.0033666665999999997
35,0.00346
36,0.0035533334
37,0.0036400002
38,0.0037400002000000003
39,0.0038400001999999997
40,0.0039333336
41,0.0040333334
42,0.00412
43,0.0042266666
44,0.0043400004
45,0.0044533336
46,0.0045466668
47,0.004640000199999999
48,0.0047266669999999995
49,0.0048400002
50,0.0049466668
51,0.005033333400000001
52,0.0051533334
53,0.005246666799999999
54,0.0053400002
55,0.0054400002000000005
56,0.005533333600000001
57,0.005633333400000001
58,0.0057333338
59,0.0058333334
60,0.0059466668
61,0.006046666800000001
62,0.0061533334000000005
63,0.0062466668
64,0.006340000199999999
65,0.0064400002
66,0.006546666999999999
67,0.006646666800000001
68,0.0067466667999999995
69,0.0068400002
70,0.006946666799999999
71,0.0070599999999999994
72,0.0071466668
73,0.0072466668
74,0.0073666668
75,0.0074600002
76,0.00756
77,0.0076466668
78,0.00776
79,0.0078533338
80,0.0079533334
81,0.0080466662
82,0.0081533334
83,0.0082533334
84,0.0083333336
85,0.0084400002
86,0.0085466662
87,0.0086466668
88,0.0087466668
89,0.0088600004
90,0.0089666674
91,0.00906
92,0.009153333
93,0.009260000000000001
94,0.00936
95,0.009466667
96,0.0095600002
97,0.0096599998
98,0.0097533336
99,0.0098600002
100,0.009960000200000001
101,0.010053334
102,0.010153334
103,0.010253334
104,0.010353334000000002
105,0.010453334
106,0.010560002
107,0.010660001999999998
108,0.010766668000000002
109,0.010853334000000003
110,0.010966665999999998
111,0.011053334000000001
112,0.011153334
113,0.01126
114,0.011353334000000001
115,0.011453336
116,0.01156
117,0.011666666000000001
118,0.011773334
119,0.011873334
120,0.01196
121,0.012066668
122,0.012173334
123,0.012266668
124,0.012366668
125,0.012453335999999999
126,0.012553336000000002
127,0.012660002
128,0.012753335999999999
129,0.012860002
130,0.012953334
131,0.013066666
132,0.013173334
133,0.013266667999999999
134,0.013373334
135,0.013466668000000001
136,0.013553334
137,0.01366
138,0.013753334
139,0.013860002
140,0.013960002
141,0.014053334
142,0.014160002
143,0.014273333999999999
144,0.014366666
145,0.01446
146,0.014566666
147,0.014666666
148,0.014766666000000001
149,0.014866668
150,0.014960002
151,0.015066668
152,0.015166668
153,0.015260002
154,0.015346668000000003
155,0.015460000000000002
156,0.015553333999999999
157,0.015666668
158,0.015766668
159,0.01588
160,0.01598
161,0.016073334
162,0.016173334
163,0.016253334
164,0.016360002
165,0.016473334
166,0.016573334000000002
167,0.01666
168,0.016766668000000002
169,0.016866668
170,0.016953333999999997
171,0.01706
172,0.01716
173,0.01726
174,0.017366666
175,0.017466668
176,0.017566668
177,0.017673334000000002
178,0.017766668
179,0.017866668000000002
180,0.017966666
181,0.01806
182,0.018146666
183,0.018253332
184,0.018366668
185,0.018466668
186,0.018546668
187,0.018653334
188,0.018746666
189,0.01886
190,0.018946666
191,0.019053332
192,0.019146666
193,0.019239999999999997
194,0.019346668
195,0.01946
196,0.019553334
197,0.019666666
198,0.019780001999999998
199,0.019880000000000002
200,0.019966668
201,0.020073333999999998
202,0.020173334
203,0.020273334
204,0.02036
205,0.020453334
206,0.020546667999999997
207,0.020653334000000002
208,0.020746666000000004
209,0.020853334
210,0.02096
211,0.021053334
212,0.021173332
213,0.021259999999999998
214,0.021366666
215,0.021466666000000002
216,0.021566666
217,0.021660000000000002
218,0.021766665999999997
219,0.02186
220,0.021953334
221,0.022060000000000003
222,0.022153334000000004
223,0.022260002
224,0.022353336
225,0.022460002
226,0.022553334
227,0.022653334
228,0.022746666
229,0.022866665999999997
230,0.022966666000000004
231,0.02306
232,0.023146666
233,0.02324
234,0.023346667999999998
235,0.023453334
236,0.023566666
237,0.023659998000000005
238,0.023753332
239,0.023859998
240,0.023973334
241,0.02406
242,0.02416
243,0.024253334
244,0.02436
245,0.024466666000000005
246,0.024559999999999995
247,0.024640002
248,0.024753334000000002
249,0.024866666
250,0.024966666
251,0.025066668000000004
252,0.025166665999999997
253,0.025266666
254,0.025353333999999998
255,0.025453334
256,0.025566665999999995
257,0.025673332
258,0.025779999999999997
259,0.025873333999999998
260,0.025966666
261,0.026073331999999998
262,0.026166663999999996
263,0.026253332
264,0.026353334
265,0.026453334000000002
266,0.026559999999999993
267,0.026666666
268,0.026766666
269,0.026866666
270,0.026966666
271,0.027073331999999995
272,0.027173332
273,0.027253334
274,0.027360000000000002
275,0.027466666
276,0.027566665999999997
277,0.027666666
278,0.02776
279,0.027873332
280,0.027979999999999998
281,0.028073334
282,0.028166666
283,0.028266668000000002
284,0.028360000000000003
285,0.028453332000000005
286,0.028566668
287,0.028666665999999997
288,0.028766668000000002
289,0.028860002000000003
290,0.028960000000000003
291,0.029073331999999997
292,0.02916
293,0.029273332000000003
294,0.029373332000000002
295,0.029486666
296,0.029580000000000002
297,0.02968
298,0.029766666000000004
299,0.029866666000000004
300,0.029959998000000005
301,0.030080002
302,0.030173334000000003
303,0.030266665999999998
304,0.030373332000000003
305,0.030473332000000002
306,0.030573331999999998
307,0.030673331999999998
308,0.030773334000000003
309,0.030873333999999995
310,0.030966665999999997
311,0.031073332
312,0.031166667999999998
313,0.031266666
314,0.031366666
315,0.03147333200000001
316,0.031573331999999996
317,0.03166
318,0.03176
319,0.03186
320,0.031966666000000005
321,0.032060003999999996
322,0.03216667
323,0.03226667
324,0.032353334
325,0.03246
326,0.032546665999999995
327,0.032653334
328,0.032773334
329,0.03286
330,0.03298
331,0.033066668
332,0.033173336
333,0.03326
334,0.033360004
335,0.033460000000000004
336,0.03355999999999999
337,0.033666666
338,0.033766666
339,0.033866666000000004
340,0.033973334
341,0.034066665999999995
342,0.03416
343,0.03426667
344,0.034366666000000004
345,0.03447333600000001
346,0.034566665999999996
347,0.03466
348,0.03476
349,0.03486
350,0.034966666
351,0.035066665999999996
352,0.035166666
353,0.035253334000000004
354,0.035353336
355,0.035453333999999996
356,0.03556000399999999
357,0.03565999999999999
358,0.03576
359,0.035866666000000005
360,0.035980000000000005
361,0.036059999999999995
362,0.036160000000000005
363,0.03626
364,0.036359998
365,0.036460004000000004
366,0.036573334
367,0.036673334
368,0.036773334000000005
369,0.036866666
370,0.03696
371,0.037066666
372,0.03715999999999999
373,0.037266668
374,0.037366666
375,0.037466665999999996
376,0.037566669999999996
377,0.037653332
378,0.037753336000000005
379,0.037866666
380,0.037966665999999996
381,0.038073334
382,0.038173334
383,0.03826
384,0.038366666
385,0.038473332
386,0.03856
387,0.038653338
388,0.038746666000000006
389,0.03884667
390,0.03895333199999999
391,0.03906
392,0.03915999999999999
393,0.039266666
394,0.039366666
395,0.039473332
396,0.039573334
397,0.039680002000000006
398,0.039780002
399,0.039880002
400,0.039966668
401,0.040066668
402,0.040153334
403,0.040260002
404,0.040353334
405,0.040466666
406,0.04056
407,0.040673334000000005
408,0.04077333600000001
409,0.04088
410,0.040959999999999996
411,0.04106667
412,0.041159997999999996
413,0.041266666
414,0.041359997999999995
415,0.041459998
416,0.041573334
417,0.04167333399999999
418,0.041780002
419,0.041866666
420,0.041980002
421,0.04208
422,0.04217333599999999
423,0.04228
424,0.04238
425,0.04248
426,0.04258
427,0.042666666
428,0.04276666600000001
429,0.042873332
430,0.042973331999999996
431,0.043060002
432,0.04316
433,0.04326667
434,0.043359999999999996
435,0.043466666
436,0.04356
437,0.04366
438,0.043766665999999996
439,0.043866666
440,0.043973332
441,0.044080002
442,0.044180001999999996
443,0.044280002
444,0.044380001999999995
445,0.044473333999999996
446,0.04456
447,0.04466
448,0.04476
449,0.04486
450,0.044966666
451,0.045073336000000006
452,0.045173333999999996
453,0.045260002
454,0.04536
455,0.045460002
456,0.045573334
457,0.045673333999999996
458,0.045773334
459,0.045873334
460,0.045966666
461,0.04606666599999999
462,0.04616667
463,0.046273332
464,0.04636667
465,0.046466666000000004
466,0.04657333600000001
467,0.046673334
468,0.046773334
469,0.046866666
470,0.046966666000000004
471,0.047073334
472,0.047180002
473,0.047260004
474,0.047373334
475,0.047473336
476,0.04755333199999999
477,0.04766
478,0.04775999999999999
479,0.047866668
480,0.047966668000000004
481,0.048066665999999994
482,0.048180002
483,0.048280002
484,0.048373336
485,0.048466666000000005
486,0.04857333600000001
487,0.048666666000000004
488,0.048766666
489,0.048866666
490,0.04896
491,0.049073332
492,0.049166668000000004
493,0.049253333999999996
494,0.04936
495,0.04946667
496,0.049573334000000004
497,0.04966667
498,0.049773334
499,0.049866666000000004
500,0.049966666
501,0.05005999999999999
502,0.05016
503,0.05025999999999999
504,0.05036
505,0.050466668000000006
506,0.050573336
507,0.050673334
508,0.050773336
509,0.050866666000000005
510,0.05095999799999999
511,0.05105333199999999
512,0.051153333999999995
513,0.05126000199999999
514,0.051366668000000004
515,0.051473334
516,0.051579999999999994
517,0.051666670000000005
518,0.051759999999999994
519,0.05185333600000001
520,0.051953332
521,0.052053331999999994
522,0.05216666600000001
523,0.052266667999999995
524,0.052366668000000005
525,0.05246666800000001
526,0.05257333399999999
527,0.05267999999999999
528,0.05277333599999999
529,0.05287333400000001
530,0.05296667000000001
531,0.053073331999999994
532,0.053166665999999994
533,0.053266667999999996
534,0.05337333400000001
535,0.053473334000000004
536,0.053566668
537,0.053673334
538,0.05378000199999999
539,0.053880002
540,0.053986668
541,0.05407333599999999
542,0.054180000000000006
543,0.05427333399999999
544,0.054373333999999995
545,0.054473334000000005
546,0.054573331999999995
547,0.054673332
548,0.054779999999999995
549,0.05488
550,0.05498000200000001
551,0.05508
552,0.055173336
553,0.05527333399999999
554,0.055353334
555,0.055459997999999996
556,0.055559998
557,0.055673332
558,0.055779999999999996
559,0.05588666600000001
560,0.05598000000000001
561,0.056080002
562,0.05618000000000001
563,0.05627333599999999
564,0.056366667999999995
565,0.056473334
566,0.056573333999999996
567,0.056693334000000005
568,0.056799999999999996
569,0.056886667999999994
570,0.056986668
571,0.05708
572,0.057180001999999994
573,0.057273333999999995
574,0.057366669999999995
575,0.057473332
576,0.05758
577,0.05767333400000001
578,0.057773333999999996
579,0.057866666
580,0.057973334
581,0.058060002
582,0.05816000199999999
583,0.058273335999999995
584,0.058373334
585,0.058473336
586,0.058566666
587,0.058666668
588,0.058773333999999997
589,0.058873334
590,0.058980002
591,0.059086667999999995
592,0.059186666
593,0.059286668
594,0.059373336
595,0.059473334
596,0.05956667
597,0.059673334
598,0.059766668
599,0.05986666799999999
600,0.059986668
601,0.060086666
602,0.06018
603,0.060266666
604,0.060386668
605,0.060473336
606,0.060573334
607,0.060680002
608,0.06078
609,0.06085999999999999
610,0.060973334000000004
611,0.061066666000000006
612,0.061173332000000004
613,0.061273332
614,0.06136666599999999
615,0.06146
616,0.061566670000000004
617,0.06165999999999999
618,0.061760004
619,0.06186666799999999
620,0.061966666000000004
621,0.062066666000000006
622,0.062166665999999995
623,0.062266666000000005
624,0.06235999999999999
625,0.062466666000000004
626,0.062566668
627,0.06268000399999998
628,0.06277333199999999
629,0.06288
630,0.06298000000000001
631,0.063080002
632,0.06318000199999999
633,0.063266662
634,0.06336
635,0.06344666600000001
636,0.063546672
637,0.06366
638,0.063766668
639,0.063866668
640,0.063973336
641,0.064080002
642,0.06418666599999999
643,0.06428666599999999
644,0.06438000200000002
645,0.06446667
646,0.06457333000000001
647,0.064666666
648,0.064766666
649,0.06488000400000002
650,0.06497333000000001
651,0.065073334
652,0.065173334
653,0.06527333399999999
654,0.065373336
655,0.06546666400000001
656,0.06558
657,0.06568000199999999
658,0.06576667
659,0.06586666399999999
660,0.065966668
661,0.06605333599999999
662,0.066160004
663,0.06626667
664,0.06636666599999999
665,0.06647333200000001
666,0.066580002
667,0.06668000199999999
668,0.066779996
669,0.06688000000000001
670,0.06697333400000001
671,0.06707333600000001
672,0.067166664
673,0.06727333399999999
674,0.067386666
675,0.06747333400000001
676,0.067580002
677,0.067666662
678,0.067773334
679,0.067880002
680,0.06798000400000001
681,0.06809333
682,0.06818666799999999
683,0.068266668
684,0.068360004
685,0.06847333400000001
686,0.068566668
687,0.06867999999999999
688,0.06878
689,0.06887333600000001
690,0.06897332800000001
691,0.069066668
692,0.069173336
693,0.06926667
694,0.069360004
695,0.06947333400000001
696,0.069566668
697,0.069673336
698,0.06978666600000001
699,0.06987333
700,0.06997333400000001
701,0.070080002
702,0.07018000199999999
703,0.07027999599999998
704,0.07036666800000001
705,0.070473334
706,0.070553336
707,0.070673336
708,0.07078
709,0.07088666800000001
710,0.07098000200000001
711,0.071080002
712,0.071179998
713,0.071286666
714,0.071386668
715,0.071486668
716,0.071573336
717,0.07168
718,0.071773334
719,0.071873334
720,0.071960004
721,0.07207333
722,0.072166668
723,0.072273334
724,0.07238000200000001
725,0.072486666
726,0.072566666
727,0.072673334
728,0.072773336
729,0.072873336
730,0.07296667
731,0.073073336
732,0.073180002
733,0.073273336
734,0.07337333000000001
735,0.073479998
736,0.073573332
737,0.073680004
738,0.073773336
739,0.073866666
740,0.073966668
741,0.074073334
742,0.07416667
743,0.074273328
744,0.074373336
745,0.074473336
746,0.074586668
747,0.07467333200000001
748,0.074766666
749,0.07486
750,0.074960004
751,0.075073336
752,0.075166666
753,0.07526666600000001
754,0.07538
755,0.075473336
756,0.07557333200000001
757,0.07567333400000001
758,0.075766666
759,0.075860004
760,0.07596666799999999
761,0.076073334
762,0.07617333400000001
763,0.076273334
764,0.076366668
765,0.076459996
766,0.07656
767,0.07667333400000001
768,0.076773336
769,0.076866664
770,0.07696
771,0.077073336
772,0.07717333600000001
773,0.077273336
774,0.07738000199999999
775,0.07747333199999999
776,0.077566666
777,0.077666668
778,0.077759996
779,0.077873334
780,0.07797333399999999
781,0.07808000200000001
782,0.07818666799999999
783,0.078266668
784,0.078366668
785,0.078473334
786,0.07856667
787,0.078666664
788,0.078766666
789,0.07885333399999998
790,0.07896666999999999
791,0.07906666600000001
792,0.07918
793,0.079273336
794,0.079380004
795,0.07948000200000001
796,0.07957999800000001
797,0.079666668
798,0.079766666
799,0.07987333599999999
800,0.07996666399999999
801,0.080060002
802,0.080160002
803,0.08026667
804,0.080373336
805,0.08047333400000001
806,0.08057333400000001
807,0.08068
808,0.080773336
809,0.080866664
810,0.080973332
811,0.08106666800000001
812,0.081173336
813,0.081273332
814,0.081366668
815,0.08148
816,0.08158000200000001
817,0.08168666799999999
818,0.081786664
819,0.081873334
820,0.081953334
821,0.082053336
822,0.082166664
823,0.082273334
824,0.08238000000000001
825,0.08247333600000001
826,0.082586668
827,0.08268
828,0.08277333199999999
829,0.08288
830,0.08296666999999999
831,0.083066662
832,0.083166668
833,0.083273334
834,0.08338000200000002
835,0.08348
836,0.08358
837,0.083666668
838,0.083766668
839,0.083866668
840,0.083966662
841,0.084066668
842,0.08416
843,0.08426000199999999
844,0.084366668
845,0.08447333199999998
846,0.084566666
847,0.084673336
848,0.084773336
849,0.08488
850,0.08498
851,0.08508
852,0.085173336
853,0.08528666399999998
854,0.085373334
855,0.085460002
856,0.085573336
857,0.08568
858,0.085760002
859,0.08586000199999999
860,0.08597333599999998
861,0.08606667
862,0.08616666
863,0.086266668
864,0.086366668
865,0.08646667
866,0.08656
867,0.086666666
868,0.08676
869,0.08686000199999999
870,0.086953338
871,0.087060002
872,0.087173336
873,0.087273336
874,0.087373336
875,0.087466664
876,0.087566666
877,0.08766
878,0.08776667
879,0.08788
880,0.08796000000000001
881,0.08805333400000001
882,0.088153338
883,0.088253338
884,0.088359994
885,0.08845999999999998
886,0.088566666
887,0.088660004
888,0.08875999999999999
889,0.088866668
890,0.08896666800000001
891,0.08906667
892,0.089173336
893,0.08926666800000001
894,0.089373334
895,0.089466666
896,0.089580002
897,0.08966666400000001
898,0.089760002
899,0.089860002
900,0.089960004
901,0.090060002
902,0.090153334
903,0.090266666
904,0.09035333599999999
905,0.09046667
906,0.09057332999999998
907,0.09067333400000001
908,0.09075333599999999
909,0.090860004
910,0.090959996
911,0.091053334
912,0.091153334
913,0.09126000399999999
914,0.091360002
915,0.09147333399999999
916,0.091573334
917,0.09168000200000001
918,0.091760002
919,0.09185333
920,0.091946668
921,0.092053334
922,0.092160002
923,0.09226667
924,0.092373332
925,0.09247333399999999
926,0.09256667
927,0.09266667
928,0.092759998
929,0.09287999999999999
930,0.09296666599999999
931,0.09306667
932,0.09316
933,0.093266668
934,0.093353334
935,0.093460002
936,0.09358000200000001
937,0.09367333400000001
938,0.09378
939,0.09388000199999999
940,0.09398000199999998
941,0.09407333
942,0.09416666800000001
943,0.094253334
944,0.09434667
945,0.094460002
946,0.09458
947,0.09468000000000001
948,0.09478666799999999
949,0.094873336
950,0.094966662
951,0.09506666800000001
952,0.09516666800000001
953,0.095260004
954,0.095373332
955,0.09545999999999999
956,0.09556
957,0.095660002
958,0.095766668
959,0.09587999999999999
960,0.09597333400000001
961,0.096066668
962,0.096173336
963,0.09628
964,0.096366668
965,0.09646666799999999
966,0.09656667199999999
967,0.096653336
968,0.096753334
969,0.096866668
970,0.096973336
971,0.09708666800000001
972,0.097179998
973,0.097260002
974,0.09736
975,0.097460002
976,0.097553332
977,0.097660002
978,0.097766668
979,0.097873336
980,0.097960004
981,0.09807333400000001
982,0.09816
983,0.098260002
984,0.09836667
985,0.098466662
986,0.098566668
987,0.098686668
988,0.098773336
989,0.09888
990,0.098966666
991,0.09907333399999999
992,0.09916666799999999
993,0.099266668
994,0.099366662
995,0.099466668
996,0.099560002
997,0.099660004
998,0.09976
999,0.09987333400000001
1000,0.09995333399999999
1001,0.10006
1002,0.10015333999999998
1003,0.10025334000000001
1004,0.10036666000000001
1005,0.10047334000000001
1006,0.10056667999999999
1007,0.10066
1008,0.10076
1009,0.10086000000000002
1010,0.10096666000000001
1011,0.10106
1012,0.10116
1013,0.10125999999999999
1014,0.10136
1015,0.10146
1016,0.10156665999999999
1017,0.10165334
1018,0.10175334
1019,0.10186000000000002
1020,0.10196000000000001
1021,0.10207333999999998
1022,0.10215999999999999
1023,0.10227334000000002
1024,0.10235334
1025,0.10246667999999999
1026,0.10256668
1027,0.10267333999999999
1028,0.10277332000000002
1029,0.10286666
1030,0.10296665999999999
1031,0.10306666
1032,0.10317333999999997
1033,0.10326668000000001
1034,0.10336668
1035,0.10346
1036,0.10354667999999997
1037,0.10366666
1038,0.10376666000000001
1039,0.10386666
1040,0.10396000000000001
1041,0.10406666
1042,0.10416666000000001
1043,0.10425331999999998
1044,0.10435332
1045,0.10445333999999999
1046,0.10454665999999999
1047,0.10464666
1048,0.10475332000000001
1049,0.10486
1050,0.10496665999999999
1051,0.10507999999999999
1052,0.10517331999999999
1053,0.10525999999999999
1054,0.10537332000000002
1055,0.10546666
1056,0.10555999999999999
1057,0.10566
1058,0.10575334
1059,0.10585333999999999
1060,0.10594668
1061,0.10604667999999999
1062,0.10615334000000001
1063,0.10625334000000002
1064,0.10635334
1065,0.10646666
1066,0.10657334
1067,0.10667333999999999
