,Stroke (mm)
0,0.0
1,6.6666659999999995e-06
2,6.6666659999999995e-06
3,1.9999998e-05
4,3.9999998000000004e-05
5,7.3333336e-05
6,0.000113333334
7,0.0002
8,0.00032
9,0.00048666667999999996
10,0.00066
11,0.00083333326
12,0.00100000022
13,0.00112666674
14,0.0012666666
15,0.0013866668
16,0.0015199998
17,0.0016266666
18,0.0017266666
19,0.0018399997999999998
20,0.0019333334
21,0.0020466665999999997
22,0.00214
23,0.0022466666000000002
24,0.0023533331999999996
25,0.0024466666
26,0.0025533332
27,0.0026533332
28,0.0027266666
29,0.0028333332000000004
30,0.0029466668
31,0.0030466665999999997
32,0.0031533331999999996
33,0.0032466666
34,0.00334
35,0.00344
36,0.00354
37,0.0036399999999999996
38,0.0037400000000000003
39,0.0038399999999999997
40,0.003940000000000001
41,0.0040266668
42,0.00414
43,0.0042333334
44,0.0043200002
45,0.0044200002
46,0.004520000200000001
47,0.004620000399999999
48,0.004726666799999999
49,0.0048400002
50,0.0049533334
51,0.005053333200000001
52,0.0051333336
53,0.0052333334
54,0.005339999999999999
55,0.0054266668
56,0.005513333399999999
57,0.0056066666
58,0.0057266669999999995
59,0.0058333332
60,0.0059266666
61,0.0060333334
62,0.0061266668000000005
63,0.0062400002
64,0.0063533332
65,0.0064600000000000005
66,0.0065533334
67,0.006646666600000001
68,0.00674
69,0.006826666800000001
70,0.0069266668
71,0.007033333399999999
72,0.0071399998000000004
73,0.0072466666
74,0.0073533336
75,0.0074466668
76,0.0075466668
77,0.007646667
78,0.007726666599999999
79,0.0078333336
80,0.0079400004
81,0.0080466666
82,0.008153333199999998
83,0.0082333334
84,0.0083533338
85,0.008446667000000001
86,0.0085666664
87,0.0086533332
88,0.0087533332
89,0.008846666999999999
90,0.0089466672
91,0.009040000400000001
92,0.0091466666
93,0.0092466666
94,0.009340000000000001
95,0.009453333599999999
96,0.0095533336
97,0.0096599996
98,0.0097466666
99,0.0098533334
100,0.009953333800000002
101,0.010046666
102,0.010153331999999998
103,0.010246666
104,0.010346666
105,0.010446665999999999
106,0.010546666
107,0.010653331999999998
108,0.010753331999999999
109,0.010853332000000002
110,0.010946665999999999
111,0.011046668
112,0.011146666
113,0.011266664
114,0.011373332000000002
115,0.011466665999999999
116,0.011566666
117,0.01166
118,0.011766665999999999
119,0.011859999999999999
120,0.011959998
121,0.012066664000000001
122,0.012159998
123,0.01226
124,0.012359998
125,0.012466666
126,0.012566666
127,0.012666666000000002
128,0.012753334
129,0.012853334
130,0.012959998
131,0.013066666
132,0.013166665999999999
133,0.013253332000000001
134,0.013359998000000001
135,0.013453332000000002
136,0.01354
137,0.013653332
138,0.013746666
139,0.013859997999999998
140,0.013959998000000001
141,0.01406
142,0.014166666
143,0.014273332
144,0.014373331999999999
145,0.014466666
146,0.014559998
147,0.014646666
148,0.014746666
149,0.014853332
150,0.014946666
151,0.015046666
152,0.015146666
153,0.015239999999999998
154,0.015353332
155,0.015459997999999999
156,0.015553332
157,0.01566
158,0.015753334
159,0.015846666000000002
160,0.01596
161,0.016053332
162,0.016153332
163,0.016259998
164,0.016359997999999997
165,0.016453331999999998
166,0.016546666
167,0.016646666
168,0.016739998
169,0.016833332
170,0.016933334
171,0.01704
172,0.01714
173,0.017246668
174,0.017340002
175,0.017440002000000003
176,0.01754
177,0.01764
178,0.017759998
179,0.017859998
180,0.017959997999999998
181,0.018053332
182,0.018159998
183,0.018253332
184,0.018353331999999997
185,0.01844
186,0.018539999999999997
187,0.018633334
188,0.018733334
189,0.018846665999999998
190,0.018946666
191,0.019046666
192,0.019146666
193,0.019239999999999997
194,0.01934
195,0.01944
196,0.019546666
197,0.019646666
198,0.019746666
199,0.019853331999999998
200,0.019946666
201,0.020046665999999998
202,0.020153332000000003
203,0.020239999999999998
204,0.020346666
205,0.02044
206,0.020546665999999998
207,0.020640000000000002
208,0.020746666000000004
209,0.020853332
210,0.020953332
211,0.021053334
212,0.021153332000000004
213,0.021253331999999996
214,0.021359999999999997
215,0.02144
216,0.021533334
217,0.021633334000000004
218,0.021733334
219,0.021840000000000002
220,0.021939999999999998
221,0.022046666
222,0.022146666000000002
223,0.022246667999999997
224,0.022359999999999998
225,0.022466666000000003
226,0.022553334
227,0.022653334000000004
228,0.022746666
229,0.022833334
230,0.02294
231,0.023053332
232,0.023159998000000005
233,0.023246666
234,0.023346666
235,0.023446665999999998
236,0.023559998000000002
237,0.023659998000000005
238,0.023759997999999997
239,0.023853331999999998
240,0.023953332
241,0.024046666
242,0.024159999999999997
243,0.024259999999999997
244,0.024353333999999997
245,0.024453334
246,0.024546666
247,0.024653331999999997
248,0.024759998
249,0.024853332
250,0.024959998
251,0.025053332
252,0.025166664
253,0.025266664
254,0.025359998
255,0.02546
256,0.025553332
257,0.025653332
258,0.025746666
259,0.025853334
260,0.025946666
261,0.026039999999999997
262,0.026146666000000002
263,0.026253332
264,0.026353331999999997
265,0.02646
266,0.026546665999999997
267,0.026646665999999996
268,0.026746666000000002
269,0.026839999999999996
270,0.026959998000000002
271,0.027066666
272,0.027159998
273,0.027259997999999997
274,0.027359998000000003
275,0.027453332000000004
276,0.027546665999999997
277,0.027659998
278,0.027759998
279,0.027859998000000004
280,0.027953332000000004
281,0.028059997999999996
282,0.028159998000000002
283,0.028259998
284,0.028346666
285,0.028440000000000003
286,0.028546666
287,0.028646665999999998
288,0.028739999999999998
289,0.028853332
290,0.028959998000000004
291,0.029053334000000004
292,0.02916
293,0.029259999999999998
294,0.029359999999999997
295,0.029446666
296,0.02954
297,0.02964
298,0.029753332
299,0.029853332
300,0.029953332000000006
301,0.030053332
302,0.03016
303,0.030259998
304,0.030359998
305,0.030446666
306,0.03054
307,0.030653332
308,0.03074
309,0.030853332
310,0.030953332
311,0.031053332
312,0.031153333999999998
313,0.03124
314,0.031346666
315,0.03144
316,0.031533334
317,0.031626668000000004
318,0.031726668
319,0.03184
320,0.03194
321,0.032040004
322,0.03214
323,0.03224667
324,0.032346666
325,0.032446666000000006
326,0.032546665999999995
327,0.032646666000000005
328,0.032746666
329,0.032833334000000006
330,0.032933333999999995
331,0.033033334
332,0.033140004
333,0.033259998
334,0.033346672
335,0.03343999999999999
336,0.033546665999999996
337,0.033653334
338,0.033740000000000006
339,0.03384
340,0.03394666599999999
341,0.034046665999999996
342,0.034153332
343,0.03424667
344,0.03436
345,0.034466670000000005
346,0.034559997999999995
347,0.034653333999999994
348,0.03474000000000001
349,0.03484
350,0.03495333199999999
351,0.035059997999999995
352,0.03514
353,0.035246666
354,0.035340004
355,0.03543999999999999
356,0.035540004
357,0.035646666
358,0.035753334000000005
359,0.035840002
360,0.03594000199999999
361,0.036046666
362,0.036146666
363,0.036253332000000006
364,0.03634
365,0.036440004
366,0.036546668000000004
367,0.036660004
368,0.036753334000000006
369,0.036853331999999996
370,0.03695333199999999
371,0.037046666
372,0.037146666
373,0.037246666000000005
374,0.037346665999999994
375,0.03745333399999999
376,0.03755333600000001
377,0.03766
378,0.037753336000000005
379,0.037853332
380,0.037946666
381,0.038053332
382,0.038153332
383,0.03825333200000001
384,0.03835999799999999
385,0.038466666000000004
386,0.03856
387,0.038653338
388,0.03876
389,0.038860004
390,0.038966666000000004
391,0.039066664
392,0.039166666
393,0.039259998
394,0.039353332
395,0.039446666
396,0.039553334
397,0.03966000000000001
398,0.039760004
399,0.03986
400,0.03995333599999999
401,0.040066666
402,0.040173334
403,0.04026666599999999
404,0.04035999999999999
405,0.04045333400000001
406,0.040546666
407,0.040659997999999996
408,0.040753331999999996
409,0.04086000199999999
410,0.040966668
411,0.041066668
412,0.041153332
413,0.04126
414,0.041346666
415,0.041453333999999994
416,0.041553332000000005
417,0.04166
418,0.041759998
419,0.041853332
420,0.041960001999999996
421,0.042066666
422,0.042160003999999994
423,0.04226
424,0.042359999999999995
425,0.042446666
426,0.042553332000000006
427,0.042653332
428,0.042753334
429,0.042866666
430,0.042973333999999995
431,0.04306667
432,0.04316
433,0.043240004
434,0.043340000000000004
435,0.043446666
436,0.043560002
437,0.04366
438,0.04376
439,0.043840000000000004
440,0.04394
441,0.04403333399999999
442,0.044160002
443,0.044259998
444,0.044353338
445,0.044446664
446,0.044546666
447,0.04465999799999999
448,0.04475333199999999
449,0.044846666
450,0.044959998
451,0.045060004
452,0.045166665999999994
453,0.045260004
454,0.045346666
455,0.045433336000000005
456,0.045533333999999995
457,0.04564
458,0.045746666
459,0.045846666
460,0.045946666000000004
461,0.04603999999999999
462,0.046126669999999995
463,0.046233334
464,0.046340004000000004
465,0.046439999999999995
466,0.046560004
467,0.046646668
468,0.046753333999999994
469,0.04684000000000001
470,0.046953332
471,0.047046665999999994
472,0.047153332
473,0.04725333599999999
474,0.047346666
475,0.047460004
476,0.047546665999999994
477,0.047646666
478,0.047733333999999995
479,0.047853334000000004
480,0.047953334
481,0.04805333199999999
482,0.048153332
483,0.048253331999999996
484,0.048353338
485,0.048453332
486,0.048553336
487,0.04866
488,0.04876
489,0.048866666
490,0.04897333399999999
491,0.049059997999999994
492,0.049166666
493,0.04925999799999999
494,0.049366668
495,0.049473336
496,0.04955333199999999
497,0.049653336
498,0.049746665999999995
499,0.049846666000000005
500,0.04994
501,0.050033334
502,0.05014
503,0.05023999999999999
504,0.050346666000000005
505,0.05044666600000001
506,0.050546669999999995
507,0.05064666599999999
508,0.050753335999999996
509,0.05085333400000001
510,0.050953332
511,0.051059997999999995
512,0.051153331999999996
513,0.051253334
514,0.05136
515,0.05145999799999999
516,0.05155333199999999
517,0.051653335999999994
518,0.051759999999999994
519,0.051860002
520,0.05195999799999999
521,0.05205333399999999
522,0.052153333999999996
523,0.052259999999999994
524,0.052359998000000005
525,0.052453332
526,0.052546666
527,0.052653332
528,0.052766669999999995
529,0.05287333400000001
530,0.052980002000000005
531,0.053066666
532,0.053166663999999995
533,0.053259997999999996
534,0.05335333200000001
535,0.053466665999999996
536,0.053566666
537,0.053666667999999994
538,0.053786667999999996
539,0.053880002
540,0.053973334000000005
541,0.05406667
542,0.054166665999999995
543,0.054259999999999996
544,0.054346666
545,0.054453332
546,0.054559998
547,0.054653332
548,0.054753332
549,0.054853332
550,0.05496000399999999
551,0.055066666
552,0.055173336
553,0.055266666
554,0.055366663999999996
555,0.055453332
556,0.055553332
557,0.055653332
558,0.055766664
559,0.05586666400000001
560,0.055959999999999996
561,0.056053335999999995
562,0.056159998
563,0.056260003999999995
564,0.056359998
565,0.056459999999999996
566,0.056559998
567,0.056659998
568,0.056766666
569,0.056853334
570,0.056966668
571,0.05706
572,0.057153334
573,0.057253332000000004
574,0.057360004
575,0.057453332
576,0.057553332
577,0.057659998000000004
578,0.05775333199999999
579,0.05784
580,0.057953332
581,0.058046666000000004
582,0.05814666599999999
583,0.05824667
584,0.058353332
585,0.058460003999999996
586,0.058553332
587,0.058633333999999995
588,0.058746666
589,0.058846666000000006
590,0.058953334
591,0.059053334
592,0.05915333399999999
593,0.05924666599999999
594,0.059346670000000004
595,0.059453332000000005
596,0.059553338
597,0.05965999799999999
598,0.05975333199999999
599,0.05984666599999999
600,0.059946666
601,0.060053332
602,0.06015333199999999
603,0.06024666599999999
604,0.060353332
605,0.06044667
606,0.060553332
607,0.060653336
608,0.06074666599999999
609,0.06084666600000001
610,0.06094000000000001
611,0.061053332
612,0.061146665999999995
613,0.06124
614,0.06134666600000001
615,0.06144000000000001
616,0.06154666999999999
617,0.061646665999999996
618,0.061746670000000003
619,0.061846665999999995
620,0.061946666000000004
621,0.062053332
622,0.062146665999999996
623,0.06225333200000001
624,0.06235999799999999
625,0.06245333200000001
626,0.062546666
627,0.06264666999999999
628,0.06274666799999999
629,0.062846666
630,0.06294666600000001
631,0.063046666
632,0.063140002
633,0.06325333200000001
634,0.063353332
635,0.06344666600000001
636,0.06355333599999999
637,0.063653334
638,0.06374666600000001
639,0.063846666
640,0.063953338
641,0.06405333799999999
642,0.064159998
643,0.064246666
644,0.064353332
645,0.06444666800000001
646,0.06455333199999999
647,0.06464666599999999
648,0.06474666600000001
649,0.06485333800000001
650,0.06494666800000001
651,0.065059998
652,0.065153332
653,0.06525333200000001
654,0.065360004
655,0.06546666400000001
656,0.06555333199999999
657,0.065653332
658,0.065753336
659,0.065853336
660,0.065959998
661,0.066073334
662,0.066173338
663,0.066273336
664,0.06635999799999999
665,0.066453332
666,0.066546666
667,0.066653336
668,0.06675999800000001
669,0.06686666599999999
670,0.06696666600000001
671,0.06706000399999999
672,0.067153336
673,0.067259998
674,0.06736666399999999
675,0.06746666600000001
676,0.06756667
677,0.067659998
678,0.067759998
679,0.06786
680,0.067960004
681,0.06805333599999999
682,0.068153332
683,0.068259998
684,0.068360004
685,0.068453338
686,0.068553332
687,0.068646666
688,0.068746666
689,0.06885333800000001
690,0.06895999600000001
691,0.069066664
692,0.069159998
693,0.069253338
694,0.06934667000000001
695,0.069446666
696,0.069553332
697,0.069646666
698,0.06974667000000001
699,0.06985333200000002
700,0.06995333200000001
701,0.070059998
702,0.070160004
703,0.07025333600000001
704,0.070353332
705,0.070453334
706,0.070553336
707,0.07066000199999999
708,0.070753334
709,0.07086
710,0.07095333200000001
711,0.071060004
712,0.07115999799999999
713,0.071246666
714,0.071353332
715,0.071446668
716,0.071540002
717,0.07164
718,0.071746666
719,0.071833334
720,0.071940002
721,0.07204666400000001
722,0.07215333199999999
723,0.072253332
724,0.07234000200000001
725,0.07244
726,0.07253999800000001
727,0.072646666
728,0.072746668
729,0.07284666799999999
730,0.07293333399999999
731,0.073053332
732,0.073146666
733,0.073246672
734,0.07335333
735,0.07344666600000001
736,0.07354666600000001
737,0.073646668
738,0.073753336
739,0.073853332
740,0.073946666
741,0.074053332
742,0.074160004
743,0.07424666399999999
744,0.07434666599999999
745,0.07444
746,0.074553336
747,0.07464667
748,0.07475333
749,0.07483999999999999
750,0.07494667
751,0.07504000200000001
752,0.075146666
753,0.075233334
754,0.075359998
755,0.07545333800000001
756,0.075560004
757,0.075646666
758,0.07574
759,0.075853336
760,0.07594000199999999
761,0.076053332
762,0.07615333199999999
763,0.07625333200000001
764,0.07636000400000001
765,0.07644666599999998
766,0.076553332
767,0.07664
768,0.07674667199999999
769,0.076853336
770,0.07695333200000001
771,0.077053334
772,0.077140004
773,0.07725333799999999
774,0.077366666
775,0.07746666599999999
776,0.07756
777,0.07766000399999999
778,0.07776667
779,0.077866664
780,0.077959998
781,0.07804000000000001
782,0.07815333599999999
783,0.07824666599999999
784,0.07834
785,0.07844666599999998
786,0.07854667000000001
787,0.07865333199999999
788,0.078753332
789,0.078859998
790,0.078980004
791,0.079066668
792,0.079159998
793,0.079253332
794,0.07936000400000001
795,0.079460004
796,0.07955333
797,0.079653332
798,0.079759998
799,0.079866672
800,0.07996667
801,0.08006666400000001
802,0.080166666
803,0.080260004
804,0.08036000400000001
805,0.080453332
806,0.08056666600000001
807,0.080666666
808,0.08076667
809,0.08087333
810,0.080959998
811,0.081053332
812,0.081153334
813,0.08125333199999998
814,0.081373332
815,0.08145333399999999
816,0.081566672
817,0.08166667
818,0.081759998
819,0.081866668
820,0.081946666
821,0.08204667000000002
822,0.08216
823,0.08226666599999999
824,0.08236000000000002
825,0.08245333600000002
826,0.08256000200000001
827,0.08264666600000001
828,0.08275333199999999
829,0.08286
830,0.08296666800000001
831,0.08306666400000001
832,0.083159998
833,0.08326
834,0.08336000400000002
835,0.083473332
836,0.083559998
837,0.083653332
838,0.08374667
839,0.083840004
840,0.08393999600000002
841,0.084046666
842,0.08414666600000001
843,0.084260002
844,0.084366666
845,0.084466666
846,0.08456
847,0.08464667000000001
848,0.084760004
849,0.084866666
850,0.08495999800000001
851,0.08505333200000001
852,0.08514666800000001
853,0.085233334
854,0.08534
855,0.08543999799999999
856,0.085553338
857,0.08566
858,0.08576
859,0.085853332
860,0.08595333599999999
861,0.08605333600000001
862,0.086159998
863,0.08626666399999999
864,0.08636666600000001
865,0.08644667000000002
866,0.086546668
867,0.086633334
868,0.086733332
869,0.08684667199999999
870,0.08695333799999998
871,0.08705333200000001
872,0.08714666600000001
873,0.087246666
874,0.08735333599999999
875,0.08745999600000001
876,0.08756666799999999
877,0.087673334
878,0.08776667
879,0.08785333199999999
880,0.08796000000000001
881,0.08804666800000001
882,0.08814000200000001
883,0.088246668
884,0.08834666599999999
885,0.08844
886,0.08854
887,0.08864000400000001
888,0.08875333599999999
889,0.088859998
890,0.08895999800000001
891,0.08905333800000001
892,0.089160002
893,0.08925333199999999
894,0.08934666599999999
895,0.089446666
896,0.08954667000000001
897,0.089639998
898,0.089746666
899,0.08984666599999999
900,0.08995333799999998
901,0.09005333800000001
902,0.09014666600000001
903,0.090246666
904,0.090340002
905,0.09044000199999999
906,0.090546664
907,0.09063999800000001
908,0.090746666
909,0.09085333799999999
910,0.090953336
911,0.091059998
912,0.09117333400000001
913,0.09126000399999999
914,0.091360004
915,0.091453332
916,0.091553332
917,0.09166666600000001
918,0.09176000399999999
919,0.091866662
920,0.091960002
921,0.092073336
922,0.092153338
923,0.09224667
924,0.092353332
925,0.092446666
926,0.092546668
927,0.092653334
928,0.092753332
929,0.092846666
930,0.09295999799999999
931,0.09304667000000001
932,0.093153334
933,0.093259998
934,0.093359998
935,0.093466668
936,0.093566668
937,0.09366000000000001
938,0.093760002
939,0.093853334
940,0.09396667
941,0.094046662
942,0.09415999800000001
943,0.094273334
944,0.094366672
945,0.09446000200000002
946,0.09455999799999999
947,0.09467333400000001
948,0.094780004
949,0.09486667
950,0.09495999799999999
951,0.09506
952,0.095153334
953,0.095253336
954,0.095353332
955,0.095459998
956,0.095566666
957,0.09567333800000001
958,0.095773336
959,0.09586666599999999
960,0.09596666599999999
961,0.096066666
962,0.096173336
963,0.096266664
964,0.09636666599999999
965,0.096459998
966,0.096553336
967,0.09664667
968,0.09674666600000001
969,0.09685999999999999
970,0.09696667
971,0.09706667
972,0.097159996
973,0.097266666
974,0.09737333399999999
975,0.097473336
976,0.09756000000000001
977,0.09765333400000001
978,0.097753334
979,0.097853338
980,0.09794666999999999
981,0.098046666
982,0.09815333200000001
983,0.098259998
984,0.098353338
985,0.09845333599999999
986,0.09855333199999998
987,0.09864666600000001
988,0.098760004
989,0.098860004
990,0.098953332
991,0.099053334
992,0.099146672
993,0.09924667000000001
994,0.099346664
995,0.09944666599999999
996,0.099559998
997,0.09966667
998,0.09976
999,0.09986666599999999
1000,0.099959998
1001,0.10005998
1002,0.10015998
1003,0.10024666
1004,0.10034666
1005,0.10045332
1006,0.10054666000000001
1007,0.10064
1008,0.10074000000000001
1009,0.10084668
1010,0.10095334
1011,0.10105332
1012,0.10115998
1013,0.10124666
1014,0.10134000000000001
1015,0.10144
1016,0.10153999999999999
1017,0.10164666
1018,0.10174000000000001
1019,0.10183334
1020,0.10193334000000001
1021,0.10204666
1022,0.10214665999999999
1023,0.10225997999999999
1024,0.10235332000000001
1025,0.10245332
1026,0.10255999999999998
1027,0.10265334
1028,0.10274666000000002
1029,0.10284666
1030,0.10295331999999999
1031,0.10305998000000001
1032,0.10315331999999999
1033,0.10324666
1034,0.10334000000000002
1035,0.10344666
1036,0.10354665999999998
1037,0.10363334000000002
1038,0.10375332000000001
1039,0.10385332
1040,0.10396665999999999
1041,0.10405997999999998
1042,0.10414665999999999
